# Accelerometer Values
# filename:  default__4.txt
# Saving start time: Sat Nov 15 11:10:42 GMT+03:30 2014

# sensor resolution: 0.1m/s^2
#Sensorvendor: ST Microelectronic, name: ST accelerometer, type: 1,version : 104, range 16.0

# X value, Y value, Z value, time diff in ms
0.137 0.588 10.679 10
0.156 0.558 10.669 10
0.156 0.558 10.65 10
0.117 0.558 10.65 1
0.127 0.578 10.561 9
0.078 0.598 10.6 11
0.078 0.608 10.581 9
0.088 0.657 10.61 11
0.068 0.657 10.591 9
0.068 0.598 10.63 11
0.068 0.568 10.63 11
0.039 0.578 10.581 9
0.029 0.588 10.591 11
0.029 0.588 10.542 10
0.039 0.578 10.532 9
0.039 0.578 10.581 10
0.049 0.598 10.581 1
0.058 0.578 10.591 10
0.039 0.549 10.6 10
-0.009 0.451 10.581 10
-0.009 0.451 10.6 10
0.019 0.451 10.6 11
-0.009 0.47 10.581 9
-0.009 0.519 10.561 10
-0.009 0.519 10.551 10
-0.019 0.617 10.551 1
-0.039 0.676 10.561 9
-0.019 0.745 10.581 11
-0.049 0.745 10.591 9
-0.029 0.686 10.561 11
-0.029 0.686 10.591 9
-0.029 0.657 10.591 2
-0.019 0.637 10.581 9
-0.009 0.637 10.581 11
-0.049 0.48 10.63 9
-0.049 0.608 10.63 1
-0.078 0.568 10.64 10
-0.107 0.568 10.65 10
-0.049 0.519 10.728 10
-0.058 0.48 10.787 10
-0.127 0.323 10.875 9
-0.127 0.46 10.875 2
-0.117 0.392 10.885 9
-0.117 0.392 10.973 9
-0.078 0.372 10.973 2
-0.098 0.539 11.052 9
-0.137 0.637 11.003 11
-0.186 0.637 10.954 9
-0.156 0.588 10.914 11
-0.186 0.539 10.865 10
-0.196 0.578 10.836 9
-0.156 0.549 10.855 11
-0.156 0.549 10.826 11
-0.127 0.558 10.826 0
-0.127 0.529 10.846 9
-0.156 0.5 10.846 11
-0.147 0.509 10.836 9
-0.176 0.47 10.816 11
-0.176 0.47 10.846 9
-0.186 0.411 10.846 1
-0.196 0.402 10.777 10
-0.196 0.402 10.748 10
-0.215 0.421 10.699 9
-0.137 0.46 10.738 11
-0.137 0.46 10.659 9
-0.039 0.441 10.659 2
0.019 0.49 10.512 9
0.058 0.5 10.444 11
0.068 0.343 10.404 9
0.068 0.46 10.404 1
0.107 0.451 10.434 9
0.058 0.46 10.444 11
0.009 0.402 10.414 9
-0.009 0.353 10.385 11
0.029 0.362 10.414 10
0.127 0.382 10.414 10
0.176 0.392 10.493 10
0.176 0.392 10.542 10
0.186 0.353 10.542 1
0.156 0.343 10.581 10
0.0 0.343 10.699 9
0.088 0.333 10.699 1
-0.009 0.294 10.728 10
-0.068 0.294 10.777 9
-0.068 0.245 10.777 1
-0.068 0.254 10.787 10
-0.049 0.294 10.797 10
-0.039 0.372 10.826 10
-0.039 0.372 10.816 10
-0.039 0.353 10.816 1
-0.039 0.353 10.767 9
-0.029 0.362 10.767 1
-0.029 0.392 10.846 9
-0.029 0.392 10.895 10
-0.078 0.362 10.895 1
-0.127 0.323 10.895 9
-0.147 0.323 10.885 11
-0.107 0.323 10.836 10
-0.068 0.333 10.806 20
-0.058 0.313 10.816 11
-0.088 0.294 10.826 10
-0.107 0.254 10.787 9
-0.127 0.225 10.846 10
-0.098 0.225 10.816 10
-0.098 0.196 10.816 1
-0.088 0.176 10.806 10
-0.107 0.196 10.757 10
-0.117 0.215 10.806 10
-0.117 0.245 10.816 10
-0.147 0.245 10.816 10
-0.127 0.284 10.846 11
-0.127 0.284 10.777 9
-0.127 0.254 10.777 1
-0.088 0.225 10.767 10
-0.078 0.147 10.757 9
-0.058 0.137 10.738 11
-0.039 0.117 10.738 10
-0.039 0.117 10.689 9
-0.009 0.156 10.689 1
-0.019 0.156 10.679 10
-0.009 0.176 10.699 10
-0.019 0.176 10.679 10
-0.029 0.166 10.718 11
-0.039 0.166 10.708 9
-0.039 0.186 10.708 1
-0.009 0.215 10.738 9
0.147 0.215 10.738 10
0.019 0.245 10.738 3
0.088 0.235 10.659 7
0.107 0.235 10.6 11
0.117 0.225 10.571 10
0.098 0.225 10.571 9
0.098 0.264 10.571 2
0.058 0.304 10.61 9
0.049 0.304 10.62 10
0.049 0.362 10.62 1
0.0 0.343 10.65 9
-0.019 0.284 10.669 13
0.0 0.215 10.699 8
0.009 0.215 10.659 9
0.009 0.176 10.659 1
0.078 0.176 10.679 10
0.098 0.156 10.708 9
0.088 0.176 10.728 11
0.078 0.186 10.728 10
0.078 0.186 10.669 9
0.009 0.235 10.669 2
-0.039 0.254 10.699 9
-0.009 0.411 10.679 10
-0.009 0.323 10.679 1
0.019 0.353 10.659 10
0.039 0.343 10.669 9
0.029 0.362 10.659 13
0.029 0.362 10.728 7
0.068 0.313 10.728 1
0.049 0.274 10.738 10
0.039 0.196 10.699 10
-0.019 0.235 10.728 11
-0.049 0.245 10.699 9
-0.049 0.245 10.689 10
-0.029 0.284 10.689 1
-0.029 0.284 10.699 9
-0.068 0.264 10.699 1
-0.068 0.225 10.708 10
-0.068 0.186 10.738 9
-0.049 0.127 10.748 11
-0.049 0.127 10.718 9
-0.029 0.127 10.718 2
-0.058 0.166 10.728 9
-0.088 0.215 10.767 11
-0.088 0.215 10.836 9
-0.088 0.245 10.836 1
-0.068 0.304 10.875 10
-0.068 0.304 10.816 9
-0.078 0.353 10.816 1
-0.068 0.362 10.797 10
-0.049 0.304 10.757 9
-0.049 0.215 10.728 11
-0.029 0.196 10.708 10
-0.029 0.196 10.699 9
-0.009 0.137 10.699 1
0.0 0.137 10.679 10
0.019 0.176 10.689 10
0.049 0.176 10.738 10
0.088 0.156 10.787 10
0.068 0.137 10.748 11
0.058 0.137 10.757 9
0.019 0.176 10.738 11
0.019 0.176 10.777 9
-0.009 0.225 10.777 1
-0.009 0.264 10.679 10
-0.029 0.323 10.699 10
-0.039 0.284 10.708 10
-0.049 0.274 10.708 10
-0.058 0.274 10.767 10
-0.058 0.235 10.767 1
-0.019 0.176 10.748 9
0.0 0.137 10.787 11
-0.009 0.137 10.836 9
-0.009 0.098 10.836 1
0.0 0.098 10.787 10
0.009 0.107 10.826 10
-0.019 0.107 10.826 9
-0.058 0.137 10.816 11
-0.058 0.137 10.797 9
-0.068 0.156 10.797 2
-0.068 0.117 10.787 9
-0.039 0.127 10.767 11
-0.039 0.127 10.728 9
-0.019 0.196 10.728 1
0.019 0.156 10.679 9
0.058 0.215 10.61 11
0.078 0.215 10.61 9
0.078 0.245 10.61 2
0.098 0.284 10.65 9
0.098 0.294 10.708 10
0.068 0.304 10.728 10
0.078 0.304 10.748 11
0.058 0.284 10.738 10
0.029 0.254 10.738 10
-0.009 0.225 10.748 10
-0.029 0.127 10.718 9
-0.058 0.039 10.738 11
-0.078 0.039 10.728 9
-0.078 0.127 10.65 21
-0.039 0.186 10.581 10
-0.088 0.186 10.571 10
-0.088 0.254 10.571 1
-0.058 0.274 10.659 10
-0.049 0.274 10.679 9
-0.049 0.284 10.679 1
-0.078 0.254 10.748 9
-0.088 0.245 10.797 11
-0.078 0.245 10.846 9
-0.078 0.235 10.846 2
-0.088 0.254 10.797 9
-0.098 0.254 10.797 10
-0.117 0.245 10.787 10
-0.098 0.245 10.767 10
-0.098 0.245 10.748 10
-0.107 0.176 10.748 1
-0.127 0.107 10.757 9
-0.107 0.117 10.728 11
-0.107 0.117 10.748 9
-0.088 0.098 10.748 1
-0.098 0.098 10.708 10
-0.039 0.088 10.669 10
0.117 0.088 10.718 9
0.009 0.127 10.718 2
0.049 0.186 10.699 9
0.039 0.235 10.659 10
0.039 0.235 10.738 10
0.029 0.274 10.738 1
0.019 0.294 10.738 9
0.0 0.294 10.738 11
-0.049 0.264 10.669 9
-0.117 0.254 10.708 11
-0.117 0.254 10.718 9
-0.156 0.225 10.718 1
-0.196 0.196 10.748 10
-0.176 0.176 10.728 10
-0.019 0.176 10.669 10
-0.098 0.098 10.669 1
-0.088 0.107 10.62 9
-0.058 0.088 10.61 11
-0.058 0.088 10.659 9
-0.049 0.058 10.659 1
0.029 0.068 10.728 9
0.0 0.107 10.777 11
-0.029 0.107 10.816 9
-0.029 0.166 10.816 2
-0.039 0.196 10.826 9
-0.058 0.264 10.777 10
-0.058 0.333 10.748 10
-0.049 0.362 10.728 10
-0.019 0.304 10.62 11
-0.039 0.304 10.63 9
-0.039 0.254 10.63 1
-0.019 0.166 10.63 10
-0.019 0.166 10.669 9
-0.039 0.147 10.669 2
0.0 0.147 10.62 9
0.009 0.117 10.6 10
0.0 0.117 10.679 10
-0.029 0.078 10.748 10
-0.039 0.049 10.806 11
-0.078 0.058 10.806 9
-0.098 0.078 10.816 11
-0.098 0.078 10.767 9
-0.117 0.107 10.767 1
-0.088 0.137 10.728 10
-0.098 0.137 10.748 10
-0.098 0.137 10.757 9
-0.078 0.147 10.757 1
-0.039 0.147 10.728 10
0.019 0.205 10.767 10
0.0 0.205 10.797 10
0.0 0.264 10.797 1
0.0 0.245 10.738 9
-0.039 0.215 10.689 11
-0.068 0.215 10.64 9
-0.068 0.166 10.64 1
-0.068 0.107 10.64 10
-0.068 0.107 10.797 9
-0.029 0.049 10.757 1
0.049 0.019 10.797 10
0.088 -0.009 10.806 10
0.058 0.147 10.797 10
0.058 0.029 10.797 1
0.0 0.098 10.757 9
-0.039 0.098 10.738 10
-0.039 0.147 10.738 1
-0.098 0.215 10.728 10
-0.117 0.245 10.718 11
-0.117 0.245 10.561 8
-0.127 0.274 10.659 1
-0.117 0.264 10.689 10
-0.058 0.225 10.718 10
0.029 0.225 10.708 10
0.029 0.176 10.708 1
0.029 0.166 10.679 9
0.029 0.166 10.659 10
0.058 0.107 10.659 1
0.068 0.068 10.728 9
0.058 0.058 10.708 11
0.058 0.058 10.718 9
0.058 0.078 10.718 1
0.019 0.107 10.748 10
0.039 0.107 10.748 9
0.039 0.098 10.748 1
-0.019 0.117 10.767 10
-0.029 0.098 10.748 10
-0.058 0.058 10.679 10
-0.058 0.058 10.591 10
-0.058 0.068 10.591 1
-0.078 0.156 10.581 9
-0.088 0.254 10.63 11
-0.049 0.294 10.6 11
-0.019 0.254 10.62 9
-0.019 0.254 10.679 9
-0.009 0.205 10.679 1
0.019 0.147 10.728 11
0.009 0.078 10.787 9
0.009 0.078 10.846 9
0.009 0.039 10.846 2
0.009 0.039 10.855 9
-0.019 0.049 10.875 10
-0.029 0.049 10.875 11
-0.029 0.049 10.865 1
-0.029 0.049 10.816 8
-0.029 0.078 10.816 1
-0.029 0.098 10.767 10
-0.029 0.098 10.738 9
-0.019 0.117 10.738 1
-0.029 0.147 10.728 10
0.0 0.147 10.64 10
0.0 0.147 10.63 9
-0.019 0.137 10.63 2
-0.019 0.156 10.6 9
-0.009 0.166 10.561 10
0.039 0.166 10.551 10
0.039 0.225 10.551 1
0.058 0.235 10.61 10
0.058 0.235 10.65 9
0.068 0.205 10.65 1
0.019 0.166 10.689 10
-0.058 0.166 10.748 9
-0.058 0.117 10.748 2
-0.137 0.078 10.787 9
-0.137 0.009 10.728 14
-0.117 0.009 10.738 6
-0.117 0.0 10.738 1
-0.088 0.0 10.718 9
-0.078 0.0 10.708 10
-0.078 0.009 10.708 1
-0.078 0.009 10.738 9
-0.107 0.039 10.738 1
-0.078 0.127 10.718 10
-0.078 0.127 10.708 9
-0.058 0.117 10.708 1
-0.009 0.088 10.689 10
0.009 0.137 10.64 10
0.049 0.166 10.61 10
0.088 0.205 10.62 10
0.107 0.196 10.738 10
0.088 0.166 10.787 10
0.088 0.166 10.836 11
0.107 0.127 10.836 2
0.088 0.127 10.855 8
0.049 0.127 10.826 9
0.049 0.117 10.826 1
0.019 0.098 10.806 10
-0.019 0.049 10.846 11
-0.029 0.019 10.826 10
-0.019 0.039 10.816 10
-0.029 0.058 10.797 10
-0.039 0.039 10.738 11
-0.019 0.078 10.679 9
0.039 0.107 10.6 10
0.058 0.196 10.571 10
0.068 0.235 10.591 10
0.068 0.205 10.679 10
0.058 0.215 10.669 10
-0.009 0.205 10.718 10
-0.019 0.186 10.689 10
-0.029 0.186 10.689 10
-0.049 0.137 10.64 10
-0.039 0.039 10.679 10
-0.009 0.039 10.699 10
0.147 0.009 10.718 10
0.0 0.009 10.699 10
-0.019 0.009 10.669 10
-0.019 0.049 10.669 10
0.009 0.049 10.718 10
0.009 0.098 10.728 10
-0.019 0.176 10.787 10
-0.049 0.166 10.767 1
-0.039 0.166 10.708 19
-0.019 0.186 10.708 1
0.039 0.205 10.718 19
0.107 0.215 10.699 10
0.127 0.166 10.699 10
0.078 0.147 10.63 10
0.078 0.156 10.6 10
0.009 0.186 10.65 10
-0.029 0.117 10.65 10
-0.078 0.078 10.669 10
-0.068 0.058 10.6 10
-0.058 0.009 10.63 10
0.029 0.019 10.738 10
0.078 0.039 10.748 10
0.107 0.049 10.757 10
0.068 0.137 10.748 10
0.0 0.147 10.728 11
-0.019 0.147 10.757 9
-0.009 0.166 10.738 10
0.0 0.176 10.718 10
0.039 0.196 10.659 10
0.078 0.225 10.581 11
0.058 0.225 10.61 10
0.068 0.186 10.62 5
0.058 0.205 10.65 14
0.009 0.156 10.571 10
0.019 0.127 10.64 10
0.019 0.107 10.699 10
0.009 0.068 10.787 10
0.029 0.029 10.787 10
0.0 0.029 10.836 10
-0.019 0.009 10.865 10
-0.098 0.029 10.855 10
-0.098 0.049 10.816 10
-0.098 0.088 10.816 10
-0.088 0.147 10.757 10
-0.068 0.196 10.748 10
-0.068 0.225 10.728 10
-0.049 0.205 10.708 10
-0.009 0.137 10.679 10
0.058 0.117 10.65 10
0.058 0.127 10.659 10
0.058 0.117 10.679 10
0.049 0.137 10.689 6
0.058 0.107 10.767 11
0.058 0.107 10.777 9
0.058 0.078 10.777 1
0.068 0.049 10.777 9
0.029 0.049 10.728 11
0.009 0.049 10.748 9
0.009 0.019 10.748 2
0.019 0.039 10.718 9
0.009 0.029 10.708 10
-0.029 0.029 10.738 10
-0.029 0.127 10.738 1
-0.039 0.156 10.728 9
-0.049 0.196 10.679 11
-0.019 0.205 10.65 9
0.029 0.196 10.64 10
0.078 0.186 10.679 11
0.058 0.176 10.708 9
0.049 0.127 10.738 11
0.029 0.117 10.738 10
0.019 0.078 10.718 10
-0.019 0.068 10.718 10
-0.068 0.019 10.757 11
-0.068 0.019 10.728 9
-0.039 -0.009 10.718 11
-0.039 -0.009 10.728 9
-0.029 0.009 10.728 1
-0.029 0.039 10.797 10
0.0 0.068 10.738 9
0.019 0.088 10.718 11
0.019 0.088 10.561 9
0.049 0.107 10.669 1
0.088 0.186 10.659 10
0.088 0.225 10.65 10
0.058 0.235 10.728 11
0.029 0.235 10.787 9
0.039 0.166 10.738 10
0.029 0.137 10.748 11
0.068 0.137 10.806 9
0.068 0.098 10.806 1
0.098 0.049 10.806 10
0.049 0.049 10.757 10
0.009 0.049 10.748 9
0.009 0.029 10.748 2
0.0 0.039 10.748 9
-0.058 0.058 10.748 10
-0.058 0.058 10.708 10
-0.107 0.058 10.708 1
-0.127 0.029 10.62 9
-0.088 0.009 10.591 11
-0.088 0.009 10.64 9
-0.009 0.019 10.64 1
0.039 0.039 10.65 9
0.068 0.117 10.708 11
0.068 0.117 10.738 10
0.107 0.166 10.738 1
0.127 0.205 10.757 9
0.058 0.205 10.787 11
0.029 0.156 10.767 9
0.058 0.107 10.728 10
0.058 0.078 10.699 11
0.049 0.078 10.61 9
0.049 0.049 10.61 1
-0.029 0.029 10.65 10
-0.029 0.029 10.699 9
-0.107 0.009 10.699 1
-0.107 0.0 10.708 10
-0.117 -0.009 10.679 10
-0.117 -0.009 10.62 10
-0.068 -0.009 10.62 1
-0.068 -0.009 10.6 9
0.0 -0.009 10.6 1
0.039 0.0 10.708 9
0.049 0.019 10.797 11
0.049 0.019 10.787 9
0.088 0.039 10.787 1
0.078 0.088 10.826 9
0.049 0.166 10.806 11
0.049 0.166 10.855 9
0.049 0.215 10.855 1
0.068 0.196 10.767 10
0.127 0.147 10.679 10
0.127 0.147 10.669 10
0.127 0.098 10.669 2
0.078 0.058 10.689 8
0.029 0.029 10.699 10
0.029 0.029 10.63 11
0.039 0.019 10.63 10
0.029 0.029 10.669 10
0.009 0.009 10.767 10
0.0 -0.009 10.797 10
-0.009 -0.029 10.836 10
-0.039 0.0 10.826 10
-0.009 0.029 10.797 11
0.009 0.058 10.748 9
0.039 0.156 10.669 11
-0.029 0.156 10.64 9
-0.029 0.196 10.64 3
-0.029 0.205 10.62 8
-0.029 0.196 10.63 10
0.009 0.156 10.6 10
0.029 0.107 10.532 10
0.058 0.107 10.571 10
0.058 0.088 10.571 1
0.088 0.078 10.62 9
0.088 0.078 10.64 10
0.068 0.068 10.64 1
0.058 0.068 10.62 10
0.058 0.068 10.669 9
0.019 0.068 10.669 1
0.009 0.058 10.738 11
0.049 0.058 10.757 8
0.049 0.039 10.757 2
0.049 0.039 10.738 9
0.049 0.019 10.738 1
0.039 0.039 10.728 9
0.009 0.098 10.718 11
0.009 0.098 10.679 9
0.009 0.068 10.679 1
-0.029 0.098 10.699 10
-0.029 0.107 10.689 10
-0.039 0.166 10.64 10
0.009 0.196 10.591 10
0.058 0.196 10.561 10
0.058 0.186 10.561 1
0.078 0.186 10.62 8
0.078 0.156 10.62 2
0.098 0.107 10.679 9
0.098 0.107 10.757 9
0.078 0.058 10.757 2
0.078 0.039 10.806 9
0.078 0.039 10.846 11
0.029 0.039 10.865 9
0.029 0.019 10.865 1
-0.009 0.039 10.777 10
-0.049 0.039 10.738 10
-0.058 0.039 10.718 9
-0.058 0.058 10.718 2
-0.039 0.029 10.738 9
-0.049 0.029 10.826 10
0.0 0.019 10.787 10
0.0 0.019 10.757 10
0.029 0.058 10.757 1
0.088 0.058 10.777 10
0.098 0.058 10.767 9
0.098 0.127 10.767 1
0.058 0.196 10.806 10
0.039 0.186 10.816 11
0.009 0.147 10.836 10
0.009 0.107 10.777 10
-0.009 0.058 10.767 10
-0.049 0.019 10.797 10
-0.039 -0.009 10.777 10
-0.049 -0.009 10.777 10
-0.058 0.019 10.708 10
-0.068 0.049 10.699 10
-0.068 0.068 10.64 10
-0.088 0.088 10.63 10
-0.029 0.117 10.718 10
0.009 0.166 10.787 10
0.019 0.196 10.787 10
0.0 0.176 10.806 10
0.009 0.156 10.777 10
-0.039 0.147 10.748 10
-0.058 0.117 10.767 10
-0.078 0.117 10.718 10
-0.049 0.078 10.738 10
-0.049 0.058 10.708 10
0.0 0.039 10.708 1
0.009 0.029 10.757 19
-0.009 0.049 10.738 10
-0.049 0.009 10.718 10
-0.029 0.0 10.63 10
-0.029 0.0 10.61 10
0.0 0.0 10.65 10
0.039 0.039 10.699 10
0.049 0.137 10.718 10
0.058 0.147 10.748 10
0.029 0.196 10.806 11
0.039 0.205 10.757 9
0.029 0.205 10.777 10
0.068 0.127 10.718 10
0.107 0.088 10.669 10
0.127 0.078 10.63 10
0.107 0.058 10.63 10
0.068 0.078 10.61 10
0.019 0.058 10.591 10
0.0 0.078 10.551 10
-0.039 0.088 10.532 11
-0.029 0.107 10.581 2
-0.029 0.107 10.659 10
-0.029 0.098 10.659 1
0.019 0.029 10.699 9
0.009 0.029 10.738 10
0.068 0.029 10.689 10
0.068 0.078 10.689 1
0.068 0.088 10.65 9
0.107 0.127 10.62 11
0.117 0.176 10.61 9
0.107 0.196 10.62 11
0.107 0.196 10.63 9
0.088 0.215 10.63 2
0.058 0.186 10.542 10
0.019 0.186 10.522 9
0.019 0.147 10.522 1
0.039 0.156 10.532 9
0.088 0.098 10.61 11
0.098 0.098 10.679 9
0.098 0.058 10.679 1
0.088 0.019 10.767 10
0.088 0.019 10.816 9
0.078 0.0 10.816 1
0.009 0.009 10.787 10
0.0 0.009 10.767 10
-0.058 0.009 10.797 10
-0.058 0.068 10.797 1
-0.068 0.039 10.757 9
-0.039 0.068 10.777 12
-0.019 0.068 10.767 8
-0.019 0.127 10.767 1
0.019 0.098 10.777 9
0.049 0.107 10.767 11
0.049 0.107 10.777 9
0.068 0.137 10.777 1
0.068 0.147 10.767 10
0.078 0.147 10.63 10
0.078 0.147 10.591 9
0.019 0.147 10.591 2
0.039 0.176 10.63 9
0.088 0.127 10.689 10
0.088 0.127 10.748 10
0.098 0.049 10.748 1
0.078 0.039 10.836 9
0.049 -0.009 10.846 11
0.049 -0.009 10.836 9
0.0 0.019 10.836 1
-0.039 0.009 10.855 10
-0.058 0.029 10.806 10
-0.058 0.029 10.748 9
-0.068 0.068 10.748 2
-0.078 0.068 10.728 9
-0.039 0.117 10.718 11
-0.009 0.117 10.679 9
-0.009 0.127 10.679 1
0.039 0.156 10.591 9
0.088 0.205 10.512 11
0.068 0.205 10.453 9
0.068 0.274 10.453 1
0.068 0.313 10.493 10
0.068 0.313 10.65 9
0.068 0.274 10.591 1
0.068 0.274 10.61 10
0.068 0.225 10.61 1
0.039 0.196 10.708 9
0.019 0.117 10.748 11
0.019 0.117 10.806 9
0.019 0.058 10.806 1
0.0 0.009 10.777 9
0.009 0.0 10.767 11
0.019 0.0 10.728 9
0.0 0.029 10.728 11
-0.039 0.068 10.718 10
-0.039 0.068 10.689 9
-0.098 0.078 10.689 2
-0.098 0.117 10.679 9
-0.078 0.127 10.669 10
-0.078 0.127 10.64 10
-0.029 0.156 10.64 1
0.029 0.166 10.64 9
0.127 0.166 10.708 11
0.127 0.166 10.748 9
0.264 0.147 10.748 1
0.264 0.147 10.806 10
0.205 0.156 10.806 10
0.049 0.156 10.855 9
0.068 0.127 10.855 1
-0.019 0.088 10.865 10
-0.088 0.068 10.836 10
-0.088 0.068 10.767 10
-0.137 0.029 10.767 1
-0.127 0.009 10.748 9
-0.058 0.009 10.738 11
-0.029 0.009 10.718 10
0.0 0.009 10.718 9
0.039 0.0 10.748 11
0.039 0.0 10.738 9
0.078 0.029 10.738 1
0.049 0.117 10.728 10
0.068 0.225 10.757 10
0.068 0.225 10.787 10
0.058 0.264 10.787 1
0.068 0.274 10.846 9
0.039 0.196 10.846 11
0.039 0.196 10.836 9
0.039 0.156 10.836 1
0.019 0.078 10.826 10
0.029 0.049 10.728 10
0.009 0.039 10.738 10
0.019 0.029 10.699 10
0.019 0.039 10.669 10
0.0 0.039 10.62 10
0.0 0.068 10.62 1
-0.039 0.078 10.64 9
-0.058 0.088 10.61 11
-0.049 0.068 10.679 9
0.029 0.068 10.669 11
0.029 0.068 10.728 9
0.078 0.068 10.728 1
0.098 0.058 10.767 10
0.068 0.098 10.777 11
0.068 0.098 10.738 8
0.039 0.156 10.738 2
0.019 0.166 10.699 9
0.0 0.205 10.679 11
0.019 0.205 10.669 9
0.019 0.235 10.669 1
0.019 0.147 10.659 12
0.039 0.156 10.65 8
0.058 0.098 10.659 9
0.068 0.019 10.659 11
0.068 -0.019 10.679 10
0.078 -0.009 10.65 10
0.068 0.019 10.669 10
0.029 0.019 10.699 10
0.029 0.088 10.699 1
0.0 0.078 10.748 9
0.0 0.078 10.797 10
-0.058 0.088 10.797 1
-0.078 0.068 10.748 11
-0.058 0.068 10.718 8
-0.058 0.098 10.718 1
-0.049 0.137 10.748 10
0.039 0.117 10.689 10
0.098 0.176 10.679 10
0.107 0.176 10.659 10
0.107 0.186 10.659 1
0.088 0.215 10.689 9
0.068 0.215 10.679 10
0.068 0.166 10.679 1
0.078 0.117 10.659 9
0.078 0.117 10.61 10
0.039 0.058 10.61 1
0.029 0.039 10.61 10
0.068 0.039 10.669 9
0.068 0.029 10.669 1
0.049 0.039 10.757 10
0.009 0.029 10.777 12
-0.029 0.009 10.797 8
-0.019 0.019 10.797 13
-0.029 0.039 10.777 7
0.0 0.039 10.787 10
0.0 0.049 10.787 1
0.058 0.049 10.718 9
0.127 0.127 10.708 11
0.186 0.186 10.699 10
0.196 0.235 10.689 10
0.176 0.225 10.679 10
0.098 0.225 10.64 11
0.098 0.166 10.64 1
0.029 0.166 10.62 8
0.029 0.166 10.571 10
-0.019 0.098 10.571 1
-0.058 0.039 10.551 10
-0.058 0.039 10.591 9
0.009 -0.009 10.591 1
0.068 -0.029 10.61 10
0.098 -0.058 10.699 9
0.078 -0.049 10.728 11
0.068 0.009 10.777 10
0.019 0.049 10.767 10
0.058 0.088 10.748 12
0.107 0.137 10.767 8
0.166 0.166 10.748 11
0.196 0.196 10.728 9
0.186 0.205 10.708 11
0.029 0.205 10.679 9
0.137 0.205 10.679 1
0.078 0.215 10.679 10
0.029 0.176 10.659 10
0.0 0.176 10.718 9
0.0 0.117 10.718 2
0.068 0.088 10.757 9
0.078 0.029 10.738 10
0.078 0.029 10.767 10
0.068 0.0 10.767 1
0.0 0.009 10.826 9
-0.029 0.0 10.836 13
-0.088 0.0 10.806 7
-0.088 0.009 10.806 1
-0.117 0.0 10.757 10
-0.098 0.019 10.738 10
-0.029 0.019 10.718 9
-0.029 0.039 10.718 2
0.029 0.049 10.679 11
0.068 0.088 10.669 8
0.088 0.088 10.63 10
0.088 0.117 10.63 1
0.117 0.147 10.561 9
0.068 0.196 10.551 11
0.039 0.196 10.463 11
0.049 0.225 10.512 8
0.107 0.186 10.62 11
0.264 0.186 10.699 9
0.166 0.117 10.699 1
0.166 0.049 10.757 10
0.156 0.029 10.767 10
0.0 0.029 10.738 10
0.137 0.0 10.738 1
0.049 0.009 10.738 9
0.0 0.009 10.757 11
-0.156 0.009 10.767 9
-0.039 0.068 10.767 1
-0.049 0.078 10.777 9
-0.039 0.039 10.748 11
-0.049 0.049 10.708 10
-0.039 0.029 10.699 10
0.0 0.058 10.63 10
0.009 0.088 10.64 11
0.039 0.166 10.591 9
0.009 0.215 10.64 10
0.009 0.186 10.659 11
0.039 0.186 10.659 9
0.058 0.147 10.757 11
0.058 0.098 10.787 10
0.058 0.078 10.806 10
0.019 -0.009 10.836 10
0.029 -0.009 10.806 10
0.029 0.009 10.806 1
0.029 0.0 10.826 9
0.019 -0.009 10.767 11
0.029 -0.009 10.718 9
0.029 0.019 10.718 1
0.009 0.019 10.728 11
-0.029 0.098 10.708 9
-0.019 0.098 10.669 9
-0.019 0.137 10.669 1
-0.019 0.117 10.62 10
-0.019 0.117 10.571 10
0.009 0.117 10.571 1
0.039 0.147 10.542 9
0.039 0.156 10.532 11
0.088 0.186 10.6 9
0.107 0.156 10.728 11
0.117 0.107 10.806 9
0.107 0.078 10.855 13
0.107 0.078 10.846 7
0.029 0.019 10.846 2
-0.029 0.0 10.806 9
-0.029 0.0 10.855 9
-0.068 0.0 10.855 1
-0.078 0.0 10.787 10
-0.068 -0.039 10.816 10
-0.068 -0.039 10.806 10
-0.058 -0.049 10.806 1
0.0 -0.049 10.797 9
-0.009 -0.029 10.767 11
-0.009 -0.029 10.708 9
0.009 0.0 10.708 1
0.019 0.019 10.679 9
0.068 0.049 10.669 11
0.068 0.049 10.826 9
0.127 0.088 10.679 1
0.137 0.137 10.738 10
0.137 0.156 10.738 10
0.107 0.137 10.757 11
0.068 0.156 10.797 9
0.107 0.068 10.767 11
0.107 0.039 10.728 9
0.117 0.0 10.708 11
0.088 0.019 10.748 10
0.078 -0.009 10.797 10
0.029 -0.049 10.767 10
0.068 -0.029 10.718 11
0.039 -0.039 10.689 9
0.019 -0.009 10.659 10
0.039 0.029 10.62 11
0.078 0.029 10.65 9
0.078 0.068 10.65 1
0.098 0.078 10.689 10
0.078 0.117 10.718 10
0.078 0.127 10.718 10
0.039 0.098 10.708 10
0.029 0.078 10.728 11
0.019 0.078 10.718 9
0.019 0.058 10.718 1
0.029 0.049 10.679 9
0.049 0.068 10.689 11
0.058 0.068 10.659 9
0.058 0.058 10.659 1
0.039 0.039 10.689 10
0.009 0.039 10.699 10
0.0 0.039 10.718 9
0.0 0.029 10.718 2
0.009 -0.029 10.699 9
0.049 -0.009 10.64 10
0.049 -0.009 10.62 10
0.058 -0.009 10.62 1
0.058 0.019 10.61 9
0.107 0.039 10.62 11
0.107 0.039 10.699 9
0.107 0.058 10.699 1
0.098 0.049 10.748 9
0.098 0.058 10.777 11
0.107 0.088 10.767 10
0.088 0.127 10.738 10
0.117 0.127 10.659 10
0.117 0.127 10.571 10
0.117 0.068 10.571 1
0.117 0.049 10.6 9
0.049 0.029 10.581 11
0.049 0.029 10.63 9
0.019 0.0 10.63 1
0.029 -0.029 10.679 10
0.078 -0.009 10.591 10
0.078 -0.009 10.542 9
0.088 -0.009 10.542 11
0.088 0.009 10.64 10
0.117 0.009 10.699 10
0.117 0.058 10.699 1
0.127 0.049 10.748 9
0.147 0.088 10.708 11
0.147 0.088 10.669 9
0.147 0.137 10.669 1
0.127 0.196 10.689 9
0.127 0.274 10.699 11
0.137 0.205 10.699 10
0.147 0.156 10.62 10
0.117 0.088 10.669 10
0.117 0.088 10.63 10
0.058 -0.009 10.63 1
0.039 -0.039 10.64 9
0.039 -0.039 10.62 11
0.039 -0.039 10.679 9
0.039 -0.029 10.679 1
0.039 -0.009 10.728 11
0.019 0.009 10.797 16
0.019 0.029 10.826 10
-0.019 0.029 10.806 20
-0.039 0.058 10.797 10
-0.019 0.098 10.728 10
0.029 0.137 10.689 10
0.088 0.176 10.699 10
0.127 0.176 10.718 10
0.127 0.166 10.728 10
0.088 0.127 10.689 10
0.068 0.068 10.689 10
0.078 0.029 10.669 10
0.098 -0.019 10.65 10
0.107 -0.039 10.64 14
0.107 0.0 10.669 6
0.088 0.019 10.777 10
0.0 0.058 10.806 10
-0.088 0.039 10.836 10
-0.078 0.039 10.846 10
-0.058 0.049 10.826 11
-0.009 0.078 10.757 4
0.088 0.117 10.738 15
0.156 0.147 10.708 10
0.147 0.215 10.659 10
0.137 0.215 10.64 10
0.088 0.186 10.62 10
0.049 0.156 10.61 10
0.009 0.117 10.65 10
0.058 0.029 10.699 10
0.049 -0.019 10.797 10
0.058 -0.049 10.816 10
0.029 -0.088 10.855 10
0.009 -0.088 10.895 10
0.019 -0.098 10.846 10
-0.019 -0.039 10.826 10
-0.009 -0.009 10.826 10
0.049 0.029 10.738 10
0.098 0.137 10.718 10
0.107 0.205 10.669 10
0.107 0.245 10.659 10
0.078 0.313 10.6 10
0.009 0.264 10.6 7
-0.039 0.205 10.659 12
0.019 0.127 10.669 8
0.049 0.039 10.708 11
0.049 0.039 10.738 9
0.098 0.0 10.738 1
0.117 0.009 10.777 10
0.088 0.039 10.777 10
0.098 0.039 10.777 11
0.039 0.029 10.748 9
0.029 0.019 10.689 10
0.039 0.019 10.718 10
0.019 0.058 10.689 10
0.019 0.088 10.679 11
0.019 0.088 10.65 9
0.058 0.107 10.65 1
0.088 0.137 10.571 10
0.107 0.137 10.542 10
0.117 0.137 10.571 9
0.117 0.166 10.571 2
0.117 0.186 10.6 9
0.088 0.196 10.65 11
0.058 0.196 10.689 9
0.058 0.137 10.689 1
0.058 0.088 10.708 9
0.049 0.039 10.679 11
0.049 0.039 10.708 9
0.009 0.029 10.708 1
0.019 0.019 10.718 10
0.068 -0.009 10.728 10
0.068 -0.009 10.699 9
0.088 -0.009 10.699 1
0.078 0.009 10.718 10
0.019 0.049 10.679 10
0.019 0.049 10.65 10
0.009 0.029 10.65 1
0.058 0.039 10.65 9
0.068 0.068 10.748 11
0.098 0.068 10.777 9
0.098 0.098 10.777 1
0.107 0.166 10.708 10
0.068 0.176 10.738 10
0.058 0.176 10.748 9
0.058 0.196 10.748 2
0.058 0.166 10.777 9
0.068 0.166 10.777 10
0.058 0.166 10.708 10
0.058 0.117 10.708 1
0.068 0.088 10.689 9
0.127 0.019 10.65 12
0.127 0.019 10.64 8
0.127 0.0 10.64 1
0.098 -0.019 10.63 9
0.039 0.029 10.669 11
0.039 0.068 10.6 10
-0.019 0.068 10.65 10
0.137 0.068 10.63 10
0.039 0.068 10.63 1
0.088 0.098 10.659 9
0.107 0.107 10.699 10
0.107 0.107 10.738 10
0.147 0.137 10.738 1
0.166 0.176 10.797 11
0.137 0.176 10.797 8
0.137 0.156 10.797 1
0.078 0.186 10.767 10
0.029 0.137 10.738 10
0.019 0.058 10.738 10
0.029 0.019 10.757 10
0.049 -0.009 10.777 11
0.078 -0.009 10.748 9
0.078 -0.039 10.748 1
0.068 -0.039 10.777 9
0.068 -0.039 10.757 10
0.078 -0.019 10.757 1
0.029 0.0 10.767 10
0.049 0.019 10.767 10
0.039 0.068 10.748 10
0.039 0.137 10.708 10
0.039 0.137 10.679 9
0.049 0.166 10.679 2
0.098 0.166 10.65 9
0.098 0.176 10.63 10
0.098 0.176 10.62 10
0.107 0.205 10.62 1
0.088 0.166 10.669 9
0.098 0.107 10.679 11
0.098 0.107 10.522 9
0.117 0.078 10.65 1
0.107 0.078 10.64 9
0.107 0.068 10.64 2
0.137 0.029 10.64 9
0.107 0.039 10.669 10
0.107 0.0 10.767 10
0.068 -0.029 10.826 10
0.019 -0.009 10.797 11
0.039 0.049 10.777 9
0.058 0.068 10.757 11
0.058 0.068 10.738 9
0.049 0.107 10.738 1
0.039 0.127 10.699 10
0.039 0.215 10.659 10
0.039 0.215 10.64 9
0.0 0.235 10.64 2
0.029 0.215 10.65 9
0.049 0.196 10.63 10
0.049 0.196 10.679 10
0.049 0.215 10.679 1
0.068 0.196 10.6 9
0.127 0.156 10.581 11
0.137 0.068 10.62 10
0.117 0.029 10.777 9
0.098 -0.009 10.826 11
0.088 -0.078 10.777 10
0.058 -0.078 10.757 10
0.058 -0.058 10.757 1
0.068 -0.009 10.718 9
0.058 0.049 10.679 11
0.049 0.049 10.64 9
0.049 0.127 10.64 1
0.019 0.166 10.669 9
0.009 0.156 10.718 11
0.009 0.156 10.699 9
0.019 0.176 10.699 1
0.068 0.186 10.6 10
0.088 0.176 10.542 10
0.088 0.176 10.532 9
0.176 0.127 10.532 2
0.205 0.088 10.571 9
0.235 0.078 10.65 10
0.235 0.078 10.728 10
0.205 0.058 10.728 1
0.176 0.078 10.806 9
0.117 0.058 10.797 11
0.058 0.039 10.777 10
-0.009 0.039 10.787 9
-0.019 -0.009 10.757 11
-0.019 -0.009 10.6 9
-0.019 0.029 10.669 1
0.039 0.029 10.63 10
0.039 0.049 10.63 1
0.098 0.098 10.659 9
0.137 0.127 10.64 11
0.176 0.284 10.61 9
0.176 0.235 10.61 1
0.147 0.225 10.679 10
0.137 0.205 10.699 10
0.098 0.147 10.699 10
0.088 0.088 10.708 10
0.058 0.049 10.708 10
0.058 0.049 10.699 10
0.078 0.039 10.699 1
0.068 0.039 10.689 9
0.058 0.029 10.689 11
0.049 0.019 10.689 9
0.049 0.0 10.699 11
0.068 0.0 10.738 9
0.068 -0.009 10.738 1
0.049 0.0 10.728 10
0.049 0.019 10.699 10
0.058 0.088 10.679 10
0.058 0.088 10.65 10
0.117 0.137 10.65 1
0.137 0.186 10.61 9
0.127 0.186 10.659 10
0.127 0.186 10.689 10
0.117 0.215 10.689 1
0.127 0.176 10.718 10
0.127 0.117 10.669 10
0.137 0.117 10.669 9
0.137 0.137 10.669 1
0.137 0.107 10.669 11
0.127 0.088 10.708 17
0.137 0.068 10.728 10
0.098 0.039 10.797 10
0.078 0.009 10.787 10
0.068 -0.029 10.777 10
0.058 -0.029 10.757 10
0.0 -0.019 10.699 10
0.019 0.0 10.61 10
0.039 0.058 10.581 10
0.107 0.107 10.61 10
0.147 0.186 10.6 10
0.147 0.137 10.699 10
0.147 0.147 10.708 10
0.166 0.107 10.748 10
0.127 0.107 10.767 10
0.117 0.098 10.738 10
0.098 0.078 10.728 10
0.039 0.078 10.708 10
-0.019 0.049 10.738 10
0.0 0.049 10.728 10
0.019 0.049 10.708 10
0.058 0.039 10.62 10
0.107 0.058 10.591 6
0.196 0.107 10.542 14
0.225 0.147 10.542 10
0.196 0.186 10.63 10
0.166 0.186 10.63 10
0.137 0.196 10.679 10
0.117 0.107 10.669 10
0.049 0.137 10.708 10
0.019 0.137 10.718 10
0.029 0.098 10.738 10
-0.009 0.068 10.757 10
-0.009 0.019 10.748 10
0.049 -0.039 10.738 10
0.078 -0.029 10.718 10
0.039 0.0 10.689 10
0.039 -0.009 10.64 10
0.049 0.039 10.63 10
0.078 0.068 10.659 10
0.107 0.137 10.708 10
0.127 0.156 10.777 11
0.107 0.176 10.836 6
0.107 0.176 10.806 9
0.107 0.127 10.806 1
0.117 0.107 10.757 10
0.078 0.107 10.728 12
0.088 0.078 10.767 8
0.088 0.078 10.738 10
0.088 0.058 10.738 1
0.058 0.058 10.777 9
-0.009 0.049 10.728 10
-0.039 0.039 10.748 11
-0.039 -0.009 10.748 9
0.029 0.0 10.787 11
0.117 -0.156 10.787 9
0.117 -0.009 10.787 1
0.098 0.009 10.846 10
0.068 0.039 10.846 10
0.098 0.088 10.836 10
0.049 0.117 10.826 10
0.039 0.137 10.787 11
0.049 0.137 10.748 9
0.049 0.117 10.748 1
0.068 0.088 10.738 9
0.098 0.049 10.728 11
0.088 0.049 10.738 9
0.088 0.029 10.738 1
0.107 0.009 10.699 10
0.098 0.0 10.708 10
0.098 0.0 10.679 9
0.088 0.0 10.65 11
0.088 0.009 10.6 10
0.088 0.009 10.591 10
0.117 0.009 10.591 1
0.205 0.019 10.63 9
0.225 0.029 10.689 11
0.225 0.029 10.699 9
0.215 0.088 10.699 1
0.196 0.127 10.767 10
0.147 0.156 10.757 10
0.088 0.127 10.806 11
0.058 0.137 10.748 9
0.088 0.098 10.718 11
0.127 0.098 10.718 9
0.137 0.117 10.718 11
0.137 0.117 10.679 9
0.107 0.098 10.679 1
0.088 0.078 10.64 10
0.078 0.019 10.679 10
0.078 -0.009 10.659 10
0.078 -0.009 10.591 9
0.058 -0.009 10.591 2
0.009 -0.009 10.542 9
0.029 -0.019 10.581 10
0.078 -0.019 10.65 10
0.078 0.019 10.65 2
0.117 0.068 10.699 8
0.137 0.137 10.777 11
0.147 0.137 10.757 9
0.147 0.147 10.757 1
0.127 0.147 10.738 10
0.098 0.176 10.757 10
0.098 0.019 10.797 10
0.098 0.147 10.797 1
0.098 0.127 10.806 9
0.137 0.127 10.816 10
0.166 0.127 10.787 10
0.166 0.147 10.787 1
0.166 0.117 10.699 9
0.166 0.088 10.748 11
0.009 0.088 10.708 9
0.137 0.058 10.708 1
0.147 0.009 10.659 10
0.127 -0.009 10.591 10
0.127 -0.009 10.522 9
0.088 -0.039 10.522 1
0.107 -0.039 10.591 10
0.117 0.009 10.708 10
0.117 0.009 10.699 10
0.117 0.049 10.699 1
0.088 0.156 10.708 9
0.068 0.166 10.689 11
0.068 0.166 10.669 9
0.088 0.147 10.659 11
0.147 0.088 10.62 10
0.147 0.088 10.659 9
0.196 0.058 10.659 1
0.186 0.058 10.708 10
0.176 0.049 10.699 10
0.176 0.049 10.542 9
0.127 0.049 10.659 2
0.068 0.029 10.659 9
0.049 0.0 10.591 10
0.078 0.009 10.591 11
0.107 0.009 10.551 9
0.107 0.019 10.551 1
0.147 0.019 10.63 10
0.245 0.039 10.65 10
0.245 0.039 10.738 9
0.254 0.098 10.738 2
0.215 0.196 10.767 9
0.107 0.215 10.787 10
0.107 0.215 10.757 10
0.058 0.284 10.757 1
-0.009 0.274 10.767 9
0.029 0.215 10.728 11
0.029 0.215 10.708 9
0.078 0.117 10.708 1
0.098 0.107 10.679 9
0.127 0.049 10.63 11
0.127 0.049 10.787 9
0.107 0.019 10.679 3
0.068 0.019 10.591 8
0.039 0.0 10.561 10
-0.117 0.0 10.561 10
-0.009 0.029 10.561 1
-0.009 0.019 10.581 10
0.068 0.019 10.63 9
0.117 0.019 10.689 11
0.156 0.039 10.728 11
0.176 0.107 10.767 9
0.176 0.107 10.748 9
0.117 0.186 10.748 1
0.068 0.176 10.748 10
0.019 0.186 10.748 11
0.029 0.196 10.748 9
0.088 0.166 10.718 10
0.147 0.166 10.757 10
0.147 0.156 10.757 1
0.137 0.088 10.738 10
0.117 0.049 10.738 10
0.107 0.049 10.679 9
0.088 0.049 10.64 11
0.068 0.039 10.64 10
0.058 0.039 10.679 10
0.088 0.039 10.689 10
0.088 0.058 10.689 1
0.117 0.049 10.738 9
0.137 0.088 10.806 13
0.117 0.068 10.806 8
0.088 0.068 10.826 10
0.088 0.068 10.748 9
0.039 0.107 10.748 1
0.058 0.166 10.718 10
0.088 0.245 10.699 10
0.088 0.245 10.679 9
0.137 0.254 10.679 1
0.176 0.264 10.65 10
0.176 0.264 10.63 10
0.156 0.196 10.63 1
0.147 0.137 10.61 9
0.147 0.137 10.581 12
0.098 0.098 10.581 1
0.098 0.098 10.561 7
0.049 0.068 10.561 1
0.039 0.019 10.679 10
0.058 -0.068 10.757 10
0.107 -0.068 10.806 10
0.127 -0.049 10.846 10
0.117 -0.029 10.855 10
0.117 -0.029 10.816 10
0.068 -0.019 10.816 1
0.098 -0.019 10.816 9
0.098 -0.019 10.787 10
0.088 0.0 10.787 1
0.117 0.088 10.767 9
0.156 0.117 10.708 11
0.156 0.225 10.728 10
0.156 0.225 10.689 9
0.176 0.205 10.689 1
0.176 0.186 10.65 10
0.186 0.029 10.63 10
0.186 0.137 10.63 1
0.156 0.098 10.64 10
0.107 0.098 10.669 9
0.107 0.068 10.669 1
0.137 0.009 10.689 10
0.186 0.009 10.757 9
0.186 0.009 10.777 12
0.166 0.009 10.846 9
0.156 0.0 10.855 10
0.098 0.0 10.855 10
0.098 0.0 10.836 9
0.078 0.009 10.836 2
0.078 0.058 10.777 9
0.088 0.156 10.728 11
0.078 0.156 10.689 9
0.078 0.225 10.689 1
0.088 0.264 10.659 10
0.098 0.274 10.659 10
0.098 0.274 10.65 9
0.098 0.245 10.65 2
0.127 0.147 10.64 9
0.107 0.049 10.571 10
0.147 -0.009 10.512 10
0.117 0.049 10.522 10
0.098 0.068 10.65 10
0.098 0.068 10.699 10
0.098 0.039 10.699 1
0.088 0.019 10.787 9
0.088 -0.009 10.836 11
0.098 0.147 10.797 9
0.098 0.009 10.797 1
0.127 0.019 10.787 10
0.166 0.029 10.738 10
0.186 0.098 10.728 10
0.196 0.176 10.689 11
0.196 0.176 10.532 8
0.186 0.186 10.669 2
0.137 0.186 10.64 9
0.117 0.186 10.63 10
0.117 0.186 10.64 10
0.098 0.186 10.64 1
0.029 0.176 10.659 10
0.029 0.176 10.65 9
0.019 0.137 10.65 1
0.049 0.058 10.64 10
0.049 0.058 10.689 9
0.058 0.019 10.689 2
0.049 -0.029 10.728 9
0.068 -0.029 10.748 11
0.068 -0.029 10.806 9
0.068 -0.029 10.797 10
0.078 0.009 10.797 1
0.117 0.049 10.728 9
0.156 0.107 10.689 10
0.156 0.166 10.63 11
0.156 0.166 10.65 9
0.156 0.245 10.65 2
0.127 0.245 10.63 9
0.117 0.245 10.6 10
0.117 0.215 10.591 10
0.127 0.147 10.591 10
0.127 0.147 10.581 10
0.137 0.088 10.581 1
0.137 0.049 10.561 9
0.176 0.058 10.591 11
0.186 0.039 10.65 10
0.156 -0.019 10.738 10
0.107 0.009 10.777 10
0.058 0.0 10.777 11
0.009 0.029 10.777 10
0.049 0.039 10.787 9
0.088 0.058 10.787 11
0.147 0.058 10.748 9
0.176 0.088 10.718 11
0.127 0.117 10.718 9
0.127 0.117 10.679 10
0.137 0.176 10.679 1
0.088 0.186 10.659 10
0.078 0.156 10.669 10
0.049 0.117 10.63 11
0.107 0.058 10.581 9
0.117 0.0 10.493 10
0.117 -0.029 10.493 11
0.147 -0.029 10.591 9
0.186 -0.019 10.708 11
0.166 -0.019 10.826 10
0.156 -0.029 10.855 10
0.137 -0.009 10.816 10
0.137 -0.009 10.806 9
0.088 0.058 10.806 2
0.107 0.049 10.787 9
0.098 0.088 10.757 10
0.127 0.117 10.679 11
0.147 0.166 10.65 9
0.137 0.196 10.591 11
0.137 0.205 10.561 10
0.147 0.166 10.591 10
0.166 0.147 10.65 10
0.147 0.127 10.669 10
0.127 0.127 10.738 10
0.127 0.137 10.738 1
0.107 0.107 10.728 9
0.117 0.098 10.738 11
0.049 0.098 10.767 9
0.009 0.029 10.787 11
-0.009 0.029 10.797 10
0.0 0.029 10.806 9
0.0 0.0 10.806 2
0.078 -0.039 10.757 9
0.098 0.0 10.757 10
0.137 0.058 10.708 10
0.127 0.107 10.62 10
0.127 0.107 10.571 10
0.117 0.156 10.571 1
0.107 0.166 10.522 9
0.078 0.176 10.512 11
0.137 0.225 10.571 10
0.294 0.225 10.6 9
0.186 0.205 10.6 2
0.215 0.186 10.718 9
0.176 0.137 10.787 10
0.127 0.107 10.816 10
0.068 0.107 10.728 10
0.029 0.088 10.718 11
0.058 0.068 10.738 9
0.009 0.049 10.777 11
0.029 0.049 10.787 9
0.029 0.058 10.806 11
0.049 0.039 10.797 10
0.029 0.058 10.757 10
0.068 0.068 10.63 10
0.068 0.088 10.502 11
0.088 0.088 10.424 9
0.088 0.137 10.424 1
0.088 0.137 10.385 9
0.137 0.205 10.385 1
0.137 0.205 10.424 9
0.147 0.205 10.424 1
0.196 0.186 10.571 10
0.196 0.186 10.748 9
0.215 0.117 10.748 1
0.176 0.088 10.895 10
0.068 0.029 10.895 10
0.029 0.058 10.914 10
-0.019 0.019 10.914 10
-0.039 0.029 10.914 10
-0.039 0.029 10.757 10
0.009 0.039 10.797 1
0.068 0.049 10.718 9
0.058 0.088 10.748 11
0.058 0.088 10.738 9
0.098 0.088 10.738 1
0.107 0.117 10.689 10
0.107 0.117 10.532 9
0.127 0.127 10.6 1
0.147 0.147 10.522 11
0.137 0.156 10.532 9
0.088 0.215 10.561 11
0.058 0.166 10.561 10
0.117 0.166 10.61 9
0.117 0.147 10.61 1
0.156 0.088 10.699 10
0.156 0.088 10.757 9
0.225 0.049 10.757 1
0.294 0.068 10.855 10
0.294 0.068 10.806 9
0.215 0.058 10.806 1
0.127 0.019 10.797 10
0.078 -0.019 10.738 10
0.049 -0.009 10.738 12
0.019 0.019 10.669 12
0.019 0.039 10.65 10
0.039 0.019 10.591 10
0.049 -0.009 10.63 10
0.049 0.0 10.659 10
0.019 0.058 10.689 10
0.039 0.176 10.748 10
0.068 0.235 10.738 12
0.107 0.254 10.748 8
0.156 0.186 10.777 10
0.205 0.137 10.826 10
0.254 0.107 10.826 10
0.264 0.068 10.806 10
0.225 0.039 10.748 10
0.186 0.0 10.718 10
0.156 -0.029 10.699 10
0.078 0.009 10.679 10
0.049 0.088 10.62 12
0.127 0.137 10.561 18
0.127 0.137 10.512 8
0.117 0.156 10.561 12
0.117 0.186 10.659 10
0.098 0.205 10.728 10
0.117 0.196 10.787 10
0.117 0.215 10.767 10
0.107 0.245 10.699 10
0.088 0.245 10.679 12
0.058 0.166 10.718 8
0.029 0.098 10.65 10
0.068 0.058 10.669 10
0.029 0.019 10.64 10
0.029 0.029 10.591 10
0.049 0.049 10.63 10
0.098 0.088 10.659 10
0.107 0.107 10.669 10
0.107 0.137 10.699 10
0.117 0.166 10.738 12
0.088 0.215 10.767 8
0.107 0.215 10.787 10
0.147 0.058 10.777 10
0.147 0.147 10.777 1
0.137 0.117 10.748 10
0.137 0.127 10.718 10
0.098 0.127 10.699 9
0.098 0.117 10.699 2
0.058 0.107 10.728 9
0.078 0.078 10.699 10
0.068 0.078 10.659 10
0.049 0.058 10.65 10
0.088 0.049 10.62 11
0.088 0.029 10.6 10
0.127 0.009 10.532 10
0.107 0.058 10.61 22
0.058 0.039 10.64 8
0.107 0.039 10.728 10
0.107 0.078 10.728 1
0.127 0.147 10.757 9
0.107 0.235 10.826 10
0.088 0.274 10.826 11
0.088 0.274 10.797 9
0.058 0.264 10.797 1
0.058 0.225 10.777 10
0.039 0.205 10.699 10
0.019 0.137 10.679 9
0.009 0.068 10.699 11
0.019 0.058 10.679 10
0.009 0.039 10.62 10
-0.019 0.019 10.61 10
-0.019 0.009 10.591 11
-0.029 -0.147 10.65 9
-0.029 -0.009 10.65 1
0.049 -0.049 10.65 10
0.058 -0.049 10.797 10
0.058 -0.049 10.806 9
0.058 -0.009 10.806 2
0.078 0.029 10.855 9
0.098 0.039 10.875 10
0.117 0.039 10.806 10
0.117 0.078 10.806 1
0.127 0.107 10.757 9
0.156 0.147 10.699 11
0.156 0.147 10.63 9
0.156 0.215 10.63 1
0.117 0.245 10.61 9
0.078 0.264 10.591 11
0.078 0.264 10.62 9
0.039 0.147 10.62 1
0.039 0.098 10.65 10
-0.009 0.039 10.669 10
-0.009 0.039 10.64 9
0.009 0.019 10.64 2
0.058 -0.009 10.669 9
0.137 -0.019 10.748 11
0.117 -0.019 10.806 9
0.117 -0.009 10.806 1
0.078 0.068 10.787 10
0.088 0.117 10.787 10
0.088 0.205 10.806 9
0.098 0.245 10.738 11
0.098 0.245 10.699 9
0.147 0.254 10.699 1
0.166 0.215 10.62 10
0.156 0.176 10.61 10
0.117 0.147 10.679 11
0.098 0.147 10.748 9
0.068 0.127 10.757 11
0.068 0.127 10.728 9
0.068 0.098 10.728 1
0.098 0.039 10.699 9
0.078 0.0 10.679 11
0.088 0.0 10.669 9
0.088 -0.039 10.669 2
0.107 -0.088 10.748 9
0.137 -0.127 10.767 10
0.137 -0.127 10.738 10
0.107 -0.039 10.738 1
0.098 0.078 10.708 10
0.078 0.186 10.699 10
0.058 0.186 10.679 9
0.058 0.235 10.679 1
0.107 0.254 10.64 9
0.117 0.196 10.63 11
0.088 0.196 10.65 9
0.088 0.166 10.65 2
0.068 0.117 10.659 9
0.107 0.088 10.64 10
0.107 0.088 10.63 10
0.107 0.078 10.63 1
0.098 0.039 10.699 9
0.078 0.019 10.728 11
0.078 0.019 10.816 9
0.068 -0.009 10.816 1
0.088 0.009 10.787 9
0.098 0.019 10.797 11
0.098 0.019 10.767 9
0.078 0.0 10.767 1
0.088 0.019 10.728 10
0.117 0.049 10.669 10
0.117 0.049 10.659 10
0.127 0.147 10.659 1
0.147 0.137 10.65 9
0.137 0.117 10.591 11
0.098 0.117 10.6 10
0.098 0.107 10.591 9
0.098 0.068 10.669 11
0.058 0.0 10.738 10
0.009 -0.156 10.777 10
0.009 -0.009 10.777 1
-0.039 0.0 10.767 9
-0.039 0.009 10.757 11
0.029 0.009 10.718 9
0.029 0.029 10.718 1
0.049 0.058 10.699 9
0.078 0.058 10.708 11
0.078 0.098 10.699 9
0.147 0.098 10.689 11
0.147 0.098 10.532 9
0.107 0.098 10.669 1
0.098 0.117 10.679 10
0.117 0.107 10.679 10
0.117 0.107 10.659 10
0.107 0.127 10.659 1
0.127 0.137 10.61 9
0.117 0.127 10.532 10
0.117 0.127 10.375 10
0.166 0.088 10.483 1
0.196 0.078 10.591 9
0.186 0.019 10.728 11
0.186 0.019 10.885 9
0.176 -0.019 10.855 1
0.117 0.0 10.855 10
0.039 0.068 10.846 10
0.029 0.049 10.689 10
0.029 0.049 10.806 2
-0.009 0.049 10.816 8
-0.009 0.088 10.816 1
0.019 0.098 10.787 9
0.019 0.107 10.718 11
0.049 0.107 10.689 9
0.049 0.098 10.689 1
0.049 0.098 10.699 10
0.0 0.068 10.689 10
-0.156 0.068 10.659 9
-0.039 0.117 10.659 1
-0.049 0.078 10.708 10
-0.019 0.049 10.797 10
0.137 0.049 10.875 10
0.019 0.019 10.875 1
0.058 -0.049 10.904 9
0.068 -0.049 10.914 11
0.068 -0.049 10.865 9
0.117 -0.039 10.865 1
0.156 0.0 10.836 9
0.137 0.068 10.757 11
0.127 0.068 10.669 9
0.127 0.127 10.669 2
0.098 0.196 10.65 9
0.098 0.196 10.561 9
0.058 0.166 10.561 2
0.029 0.098 10.502 9
0.019 0.078 10.434 10
0.019 0.078 10.444 10
0.029 0.117 10.444 1
0.098 0.117 10.493 11
0.117 0.107 10.561 9
0.107 0.107 10.65 9
0.107 0.098 10.65 1
0.117 0.078 10.728 10
0.078 0.058 10.748 10
0.049 0.039 10.757 11
0.029 0.039 10.748 9
0.049 0.078 10.816 10
0.068 0.088 10.748 11
0.117 0.107 10.767 14
0.078 0.137 10.748 10
0.058 0.058 10.65 20
0.058 0.088 10.62 10
0.078 0.137 10.61 10
0.088 0.127 10.708 10
0.107 0.137 10.787 10
0.127 0.127 10.816 10
0.147 0.088 10.816 10
0.137 0.039 10.797 10
0.127 0.019 10.777 10
0.107 -0.009 10.757 10
0.117 -0.009 10.728 10
0.058 0.009 10.65 10
0.029 0.049 10.62 10
0.039 0.127 10.64 10
0.049 0.117 10.63 10
0.058 0.137 10.65 10
0.088 0.137 10.659 10
0.156 0.107 10.659 8
0.176 0.137 10.708 12
0.196 0.156 10.738 10
0.147 0.117 10.757 10
0.127 0.058 10.757 10
0.088 0.039 10.777 10
0.068 0.029 10.826 10
0.078 0.029 10.816 10
0.098 0.029 10.748 10
0.107 0.049 10.728 10
0.117 0.029 10.679 10
0.058 0.049 10.63 10
0.058 0.049 10.65 10
0.058 0.049 10.63 10
0.049 0.147 10.532 10
0.029 0.225 10.512 10
0.009 0.294 10.463 10
0.039 0.323 10.532 10
0.058 0.294 10.659 10
0.068 0.225 10.787 10
0.039 0.137 10.944 10
-0.019 0.098 11.061 10
0.137 0.098 11.061 9
0.009 0.0 11.061 2
0.058 -0.068 11.003 9
0.058 -0.088 10.973 11
0.098 -0.088 10.846 9
0.098 -0.098 10.846 1
0.078 -0.088 10.718 9
0.049 0.009 10.64 11
0.078 0.009 10.62 9
0.078 0.029 10.62 1
0.137 0.107 10.522 10
0.186 0.166 10.463 10
0.186 0.166 10.424 9
0.274 0.274 10.424 2
0.294 0.294 10.385 9
0.284 0.333 10.365 11
0.323 0.245 10.336 9
0.304 0.147 10.424 11
0.304 0.147 10.591 9
0.264 0.078 10.591 1
0.205 0.049 10.64 9
0.156 0.029 10.738 11
0.0 0.029 10.767 9
0.117 0.039 10.767 2
0.088 -0.019 10.738 9
0.098 -0.039 10.738 10
0.098 -0.039 10.728 10
0.088 -0.068 10.728 1
0.088 -0.039 10.718 9
0.088 -0.039 10.659 10
0.098 0.0 10.659 1
0.088 0.029 10.689 9
0.088 0.147 10.767 11
0.127 0.215 10.816 10
0.156 0.215 10.806 9
0.147 0.215 10.836 11
0.117 0.156 10.836 10
0.117 0.156 10.855 2
0.049 0.0 10.895 8
0.049 0.098 10.895 1
0.029 0.009 10.895 9
0.058 -0.029 10.855 11
0.058 -0.029 10.836 9
0.058 -0.009 10.836 1
0.019 0.049 10.806 9
0.029 0.107 10.806 11
0.068 0.107 10.797 9
0.068 0.088 10.797 1
0.078 0.078 10.767 10
0.088 0.107 10.679 11
0.107 0.137 10.591 9
0.166 0.137 10.571 10
0.166 0.156 10.571 1
0.225 0.147 10.699 10
0.225 0.147 10.787 9
0.264 0.137 10.787 1
0.196 0.127 10.787 9
0.156 0.156 10.787 11
0.107 0.156 10.767 9
0.058 0.107 10.797 11
0.049 0.107 10.718 10
0.049 0.078 10.718 1
0.088 -0.009 10.689 9
0.088 -0.009 10.679 11
0.098 -0.039 10.679 1
0.107 -0.029 10.522 9
0.107 -0.029 10.64 1
0.088 0.0 10.63 8
0.078 0.0 10.591 11
0.098 0.0 10.502 9
0.098 0.049 10.502 1
0.098 0.088 10.453 10
0.068 0.127 10.385 10
0.088 0.284 10.404 9
0.088 0.156 10.404 2
0.147 0.196 10.444 9
0.304 0.196 10.561 9
0.205 0.137 10.561 2
0.245 0.137 10.65 10
0.245 0.137 10.689 9
0.254 0.147 10.689 1
0.196 0.176 10.679 9
0.127 0.147 10.65 10
0.088 0.127 10.659 11
0.088 0.049 10.689 11
0.127 -0.009 10.718 9
0.127 0.0 10.728 11
0.107 0.0 10.718 9
0.107 0.0 10.689 10
0.107 0.029 10.679 11
0.078 0.029 10.65 9
0.078 0.088 10.65 1
0.029 0.127 10.62 10
0.019 0.117 10.62 9
0.049 0.117 10.679 10
0.049 0.098 10.679 1
0.117 0.127 10.748 11
0.127 0.088 10.806 9
0.117 0.068 10.826 10
0.098 0.088 10.826 11
0.098 0.088 10.806 1
0.107 0.058 10.826 8
0.127 0.019 10.777 10
0.166 0.039 10.718 11
0.176 0.058 10.708 9
0.176 0.068 10.699 11
0.176 0.029 10.669 10
0.176 -0.009 10.757 10
0.147 -0.009 10.806 10
0.137 -0.009 10.777 10
0.137 0.029 10.757 10
0.127 0.029 10.787 11
0.137 0.029 10.757 9
0.137 0.049 10.757 1
0.098 0.078 10.777 9
0.068 0.147 10.728 11
0.068 0.147 10.659 9
0.088 0.186 10.659 2
0.078 0.225 10.591 9
0.088 0.264 10.591 10
0.078 0.264 10.6 10
0.078 0.196 10.6 1
0.088 0.147 10.61 10
0.117 0.088 10.61 10
0.147 -0.009 10.63 9
0.176 -0.039 10.542 11
0.186 -0.049 10.493 10
0.137 -0.029 10.434 10
0.098 0.0 10.502 11
0.049 0.039 10.64 9
0.088 0.039 10.748 10
0.088 0.019 10.748 1
0.088 0.039 10.836 9
0.117 0.088 10.806 10
0.107 0.245 10.767 10
0.107 0.166 10.767 1
0.147 0.225 10.738 10
0.147 0.176 10.767 10
0.147 0.176 10.777 9
0.147 0.147 10.777 2
0.098 0.176 10.738 9
0.058 0.176 10.767 9
0.058 0.166 10.767 2
0.058 0.117 10.738 9
0.078 0.058 10.728 10
0.078 0.058 10.708 10
0.049 0.009 10.708 1
0.009 0.0 10.62 9
-0.009 -0.029 10.591 11
-0.009 -0.049 10.62 9
0.009 -0.039 10.689 11
0.078 -0.019 10.757 10
0.235 -0.019 10.885 9
0.166 -0.029 10.885 2
0.205 0.029 10.914 10
0.176 0.088 10.954 9
0.186 0.137 10.855 10
0.147 0.176 10.846 13
0.127 0.166 10.767 8
0.098 0.186 10.748 9
0.049 0.196 10.708 11
0.078 0.205 10.699 10
0.078 0.205 10.542 9
0.068 0.196 10.65 1
0.107 0.127 10.65 10
0.127 0.078 10.571 10
0.127 0.078 10.512 10
0.166 0.019 10.512 1
0.127 0.009 10.473 9
0.098 0.019 10.551 10
0.068 -0.029 10.581 11
0.068 0.029 10.62 9
0.117 0.029 10.669 11
0.117 0.029 10.748 9
0.196 0.029 10.748 1
0.196 0.029 10.777 10
0.176 0.049 10.748 10
0.127 0.088 10.738 11
0.117 0.117 10.738 9
0.127 0.166 10.65 10
0.147 0.186 10.591 11
0.156 0.186 10.591 9
0.137 0.156 10.63 11
0.137 0.156 10.787 9
0.107 0.088 10.708 1
0.107 0.039 10.738 10
0.098 0.0 10.748 10
0.088 -0.156 10.806 10
0.088 -0.068 10.806 1
0.049 -0.098 10.836 9
0.068 -0.137 10.797 11
0.058 -0.098 10.767 9
0.058 -0.019 10.748 11
0.058 -0.019 10.728 9
0.088 0.068 10.728 1
0.127 0.137 10.669 9
0.156 0.196 10.63 11
0.137 0.205 10.61 10
0.156 0.196 10.659 10
0.166 0.117 10.65 10
0.166 0.088 10.65 11
0.186 0.088 10.6 9
0.186 0.078 10.6 1
0.205 0.107 10.6 9
0.215 0.068 10.659 11
0.176 0.068 10.777 9
0.176 0.029 10.777 1
0.117 0.029 10.816 10
0.049 -0.029 10.855 10
0.049 -0.029 10.826 9
0.0 -0.058 10.826 2
-0.058 -0.058 10.846 9
0.0 -0.049 10.777 11
0.039 -0.019 10.767 10
0.117 -0.009 10.728 10
0.137 0.147 10.669 9
0.137 0.088 10.669 1
0.127 0.127 10.699 10
0.117 0.127 10.669 10
0.127 0.127 10.669 10
0.137 0.127 10.61 10
0.156 0.117 10.61 10
0.156 0.117 10.542 2
0.186 0.117 10.522 8
0.186 0.107 10.522 1
0.205 0.127 10.581 9
0.205 0.127 10.689 10
0.166 0.078 10.689 1
0.147 0.058 10.797 9
0.176 0.019 10.846 11
0.147 0.019 10.846 9
0.058 0.039 10.865 11
0.029 -0.029 10.865 10
0.039 -0.009 10.846 11
0.098 -0.009 10.806 9
0.098 0.009 10.806 1
0.107 0.049 10.757 10
0.127 0.068 10.728 10
0.147 0.098 10.708 10
0.186 0.137 10.659 9
0.215 0.176 10.571 11
0.225 0.156 10.6 9
0.225 0.166 10.669 11
0.254 0.107 10.738 10
0.235 0.068 10.777 11
0.215 0.0 10.806 9
0.166 -0.156 10.826 10
0.166 -0.029 10.826 1
0.147 -0.049 10.767 10
0.127 -0.049 10.728 9
0.127 -0.029 10.728 1
0.068 0.049 10.689 10
0.068 0.049 10.669 9
0.019 0.058 10.669 1
0.029 0.098 10.659 10
0.029 0.078 10.64 10
0.137 0.078 10.62 10
0.137 0.068 10.62 1
0.176 0.009 10.522 9
0.215 0.009 10.512 10
0.215 0.039 10.512 1
0.176 0.107 10.483 9
0.147 0.156 10.512 11
0.156 0.137 10.591 10
0.215 0.098 10.689 9
0.196 0.049 10.797 12
0.196 0.009 10.865 9
0.127 -0.019 10.914 10
0.088 -0.029 10.875 10
0.058 -0.029 10.816 10
0.058 -0.049 10.816 1
0.078 -0.009 10.777 15
0.088 0.039 10.708 5
0.088 0.039 10.738 9
0.127 0.049 10.738 1
0.137 0.078 10.738 9
0.147 0.088 10.64 11
0.147 0.088 10.581 9
0.176 0.058 10.581 1
0.166 0.068 10.542 10
0.137 0.078 10.512 10
0.166 0.137 10.502 10
0.205 0.156 10.463 11
0.205 0.156 10.512 9
0.254 0.166 10.512 2
0.254 0.147 10.61 8
0.254 0.147 10.738 10
0.235 0.117 10.738 1
0.264 0.078 10.865 10
0.176 0.039 10.855 10
0.117 0.029 10.806 10
0.117 0.029 10.826 9
0.088 0.039 10.826 2
0.137 0.009 10.826 9
0.117 0.029 10.806 11
0.137 0.029 10.846 9
0.137 0.039 10.846 1
0.137 0.039 10.689 9
0.176 0.039 10.797 1
0.147 0.049 10.689 9
0.304 0.049 10.6 10
0.156 0.088 10.6 1
0.137 0.078 10.542 10
0.166 0.088 10.561 10
0.196 0.088 10.591 10
0.196 0.098 10.591 1
0.205 0.078 10.591 10
0.205 0.078 10.65 1
0.186 0.078 10.659 8
0.147 0.049 10.65 11
0.147 0.049 10.806 9
0.107 0.039 10.689 1
0.078 0.009 10.65 9
0.068 0.058 10.6 11
0.098 0.058 10.63 9
0.127 0.009 10.63 11
0.176 0.019 10.63 10
0.196 0.029 10.64 11
0.205 0.029 10.62 9
0.205 0.029 10.6 10
0.225 0.058 10.6 1
0.196 0.058 10.591 9
0.235 0.058 10.493 11
0.235 0.058 10.542 9
0.304 0.068 10.542 1
0.353 0.068 10.561 10
0.372 0.098 10.669 10
0.313 0.098 10.797 10
0.313 0.078 10.797 1
0.235 0.127 10.797 9
0.166 0.127 10.777 10
0.009 0.127 10.797 10
0.098 0.137 10.797 1
0.068 0.098 10.787 9
0.078 0.098 10.757 11
0.098 0.049 10.738 9
0.127 0.039 10.738 11
0.098 0.039 10.708 10
0.098 0.039 10.659 10
0.078 0.049 10.551 10
0.107 0.049 10.532 11
0.117 0.078 10.64 9
0.176 0.068 10.787 11
0.176 0.068 10.944 9
0.215 0.049 10.855 2
0.264 0.068 10.816 9
0.284 0.147 10.816 10
0.264 0.137 10.826 10
0.245 0.107 10.826 10
0.156 0.088 10.826 10
0.098 0.039 10.777 10
0.068 0.039 10.63 10
-0.009 0.049 10.64 10
-0.029 0.058 10.65 10
0.0 0.058 10.581 10
-0.019 0.009 10.532 10
-0.019 0.0 10.453 10
0.029 0.0 10.355 10
0.098 0.039 10.512 10
0.137 0.078 10.365 10
0.196 0.049 10.434 10
0.235 0.078 10.532 10
0.323 0.009 10.679 10
0.382 0.019 10.875 10
0.402 0.029 10.875 11
0.392 0.098 10.875 4
0.333 0.098 10.836 15
0.294 0.078 10.846 10
0.254 0.117 10.826 10
0.215 0.127 10.826 10
0.196 0.107 10.787 10
0.156 0.058 10.855 10
0.147 0.039 10.787 10
0.166 0.009 10.797 10
0.166 -0.029 10.718 10
0.156 -0.039 10.708 10
0.137 0.0 10.767 10
0.127 0.058 10.816 10
0.186 0.147 10.767 20
0.225 0.205 10.816 10
0.205 0.156 10.826 10
0.235 0.098 10.757 10
0.205 0.068 10.699 10
0.196 0.009 10.708 10
0.166 -0.029 10.748 20
0.156 -0.039 10.797 4
0.137 -0.078 10.816 10
0.137 -0.078 10.836 10
0.137 -0.058 10.836 1
0.127 -0.058 10.777 9
0.117 -0.019 10.757 11
0.137 -0.019 10.65 9
0.137 -0.009 10.65 1
0.147 0.049 10.62 10
0.156 0.117 10.581 10
0.196 0.117 10.542 9
0.196 0.137 10.542 2
0.215 0.186 10.522 9
0.205 0.215 10.502 10
0.176 0.215 10.493 10
0.176 0.176 10.493 1
0.186 0.156 10.532 9
0.215 0.088 10.6 11
0.186 0.088 10.63 9
0.186 0.058 10.63 1
0.215 0.039 10.748 9
0.147 0.019 10.787 11
0.107 0.019 10.855 9
0.107 0.009 10.855 2
0.068 0.0 10.846 9
0.058 -0.009 10.816 10
0.058 -0.009 10.806 10
0.058 0.009 10.806 1
0.078 0.029 10.757 9
0.117 0.039 10.718 11
0.156 0.039 10.718 9
0.156 0.068 10.718 1
0.205 0.098 10.65 9
0.215 0.196 10.61 11
0.215 0.196 10.551 9
0.196 0.264 10.551 1
0.196 0.235 10.542 10
0.176 0.176 10.561 10
0.176 0.176 10.591 9
0.235 0.117 10.591 2
0.254 0.039 10.689 9
0.225 -0.009 10.748 10
0.196 -0.039 10.738 11
0.117 -0.068 10.738 9
0.107 -0.058 10.738 11
0.127 -0.049 10.708 10
0.147 -0.049 10.659 9
0.147 -0.009 10.659 2
0.176 0.039 10.659 9
0.166 0.078 10.6 11
0.156 0.117 10.571 9
0.117 0.156 10.551 11
0.117 0.186 10.493 9
0.117 0.215 10.483 11
0.156 0.215 10.453 9
0.156 0.186 10.453 2
0.196 0.156 10.483 9
0.254 0.107 10.6 10
0.274 0.039 10.738 10
0.294 -0.009 10.797 10
0.235 -0.019 10.806 11
0.166 -0.019 10.885 9
0.107 -0.019 10.895 11
0.107 -0.019 10.904 9
0.049 -0.019 10.904 1
0.058 -0.019 10.895 9
0.088 0.009 10.826 11
0.088 0.009 10.816 9
0.137 0.019 10.816 1
0.137 0.039 10.806 10
0.176 0.068 10.787 10
0.166 0.068 10.738 10
0.166 0.098 10.738 1
0.166 0.107 10.64 10
0.166 0.107 10.581 9
0.166 0.117 10.581 1
0.196 0.117 10.571 9
0.205 0.088 10.63 11
0.225 0.088 10.659 9
0.225 0.049 10.659 2
0.245 0.009 10.777 9
0.205 0.009 10.797 10
0.205 0.009 10.816 9
0.147 -0.029 10.816 1
0.127 -0.039 10.865 10
0.117 -0.039 10.806 11
0.127 -0.029 10.777 9
0.147 -0.009 10.787 11
0.147 0.039 10.738 9
0.127 0.068 10.718 11
0.107 0.078 10.64 10
0.107 0.098 10.571 10
0.098 0.137 10.571 10
0.098 0.137 10.64 10
0.098 0.156 10.64 1
0.156 0.137 10.64 9
0.186 0.088 10.718 11
0.284 0.088 10.767 9
0.284 0.049 10.767 1
0.343 0.039 10.806 9
0.225 0.009 10.846 11
0.068 0.009 10.855 9
0.088 -0.009 10.855 1
-0.009 0.009 10.826 10
-0.029 0.0 10.826 10
0.127 0.0 10.787 9
0.009 0.009 10.787 2
0.068 0.039 10.708 9
0.147 0.058 10.728 10
0.147 0.058 10.708 10
0.196 0.107 10.708 1
0.235 0.147 10.699 9
0.215 0.147 10.718 11
0.137 0.156 10.591 10
0.098 0.176 10.512 9
0.088 0.127 10.463 11
0.137 0.088 10.571 10
0.196 0.019 10.63 10
0.235 -0.009 10.738 10
0.215 0.009 10.777 11
0.205 0.009 10.855 9
0.205 0.0 10.855 1
0.166 0.009 10.826 10
0.127 0.019 10.728 10
0.058 0.019 10.718 9
0.039 -0.019 10.718 11
0.039 -0.019 10.659 9
0.058 0.009 10.659 2
0.117 0.088 10.62 9
0.147 0.098 10.62 10
0.196 0.156 10.63 11
0.215 0.166 10.659 9
0.245 0.166 10.708 11
0.245 0.166 10.689 9
0.235 0.186 10.689 1
0.245 0.196 10.689 10
0.245 0.196 10.679 9
0.264 0.127 10.679 2
0.264 0.068 10.708 9
0.186 0.049 10.787 10
0.029 0.049 10.767 10
0.127 -0.029 10.767 1
0.049 -0.039 10.748 9
0.029 -0.049 10.757 11
0.029 -0.049 10.699 9
0.029 -0.029 10.699 1
0.117 0.0 10.659 10
0.176 0.009 10.659 10
0.176 0.009 10.64 9
0.186 0.009 10.64 1
0.205 0.049 10.581 10
0.235 0.058 10.581 10
0.235 0.058 10.689 10
0.235 0.068 10.689 1
0.196 0.107 10.738 9
0.127 0.098 10.748 11
0.127 0.078 10.748 10
0.078 0.068 10.806 10
0.058 0.049 10.806 10
0.058 0.049 10.797 9
0.058 0.029 10.797 1
0.078 0.029 10.777 10
0.117 0.029 10.767 10
0.137 0.029 10.767 10
0.137 0.058 10.767 1
0.147 0.019 10.777 9
0.156 0.009 10.669 11
0.156 0.039 10.561 9
0.117 0.039 10.502 11
0.127 0.019 10.424 10
0.284 0.019 10.502 9
0.186 0.098 10.502 2
0.215 0.117 10.6 10
0.205 0.147 10.669 10
0.225 0.176 10.777 20
0.166 0.147 10.767 11
0.137 0.156 10.728 9
0.147 0.147 10.767 10
0.156 0.137 10.748 10
0.166 0.088 10.738 10
0.196 0.058 10.679 10
0.196 0.029 10.659 10
0.156 0.088 10.581 10
0.137 0.068 10.6 10
0.098 0.049 10.64 10
0.078 0.078 10.659 10
0.088 0.098 10.63 10
0.196 0.098 10.64 10
0.245 0.127 10.669 10
0.245 0.156 10.757 10
0.333 0.147 10.757 10
0.333 0.137 10.816 2
0.264 0.107 10.865 18
0.235 0.137 10.826 10
0.166 0.078 10.757 1
0.186 0.088 10.679 19
0.166 0.078 10.63 10
0.166 0.058 10.62 10
0.166 0.029 10.689 10
0.137 0.0 10.679 10
0.127 -0.058 10.64 10
0.117 -0.049 10.581 10
0.068 0.0 10.62 10
0.039 -0.019 10.679 10
0.009 0.009 10.787 10
0.029 0.029 10.797 10
0.068 0.107 10.777 10
0.137 0.156 10.748 10
0.245 0.196 10.659 20
0.235 0.205 10.61 10
0.215 0.205 10.61 3
0.215 0.127 10.61 1
0.176 0.098 10.62 9
0.019 0.098 10.61 10
0.117 0.058 10.61 1
0.078 0.049 10.64 9
0.068 0.039 10.62 11
0.098 -0.009 10.591 9
0.127 -0.019 10.61 11
0.156 -0.019 10.64 10
0.196 -0.019 10.728 10
0.196 -0.009 10.728 1
0.176 0.0 10.777 9
0.156 0.088 10.787 10
0.137 0.127 10.797 11
0.166 0.186 10.708 10
0.225 0.186 10.708 9
0.225 0.176 10.708 1
0.264 0.186 10.689 10
0.284 0.147 10.708 9
0.323 0.098 10.689 11
0.166 0.098 10.65 9
0.284 0.049 10.65 1
0.274 -0.019 10.679 10
0.215 -0.049 10.679 10
0.215 -0.049 10.669 10
0.205 -0.009 10.669 1
0.196 0.039 10.757 9
0.205 0.029 10.777 10
0.205 0.029 10.767 10
0.196 0.078 10.767 1
0.176 0.078 10.738 9
0.127 0.117 10.738 11
0.127 0.117 10.689 9
0.127 0.107 10.689 1
0.156 0.137 10.689 10
0.186 0.156 10.689 10
0.186 0.156 10.699 10
0.225 0.127 10.699 1
0.186 0.117 10.669 9
0.186 0.088 10.679 11
0.176 0.088 10.718 9
0.176 0.078 10.718 1
0.156 0.049 10.718 9
0.156 0.049 10.797 11
0.0 0.049 10.875 9
0.147 0.019 10.875 1
0.176 -0.068 10.787 10
0.225 -0.107 10.718 10
0.225 -0.107 10.708 9
0.245 -0.078 10.708 2
0.274 -0.049 10.679 9
0.235 -0.058 10.62 10
0.205 0.0 10.62 11
0.147 0.078 10.65 9
0.078 0.107 10.65 11
0.058 0.137 10.65 10
0.058 0.137 10.62 1
0.078 0.205 10.62 9
0.166 0.225 10.591 10
0.225 0.225 10.581 10
0.284 0.225 10.571 10
0.284 0.166 10.571 1
0.274 0.117 10.581 9
0.215 0.029 10.522 11
0.117 0.029 10.532 9
0.117 0.009 10.532 1
0.078 0.019 10.532 10
0.078 0.019 10.581 9
0.107 0.029 10.581 2
0.137 0.019 10.679 9
0.225 0.029 10.748 10
0.353 0.058 10.806 10
0.411 0.058 10.865 10
0.411 0.058 10.846 10
0.402 0.078 10.846 1
0.294 0.107 10.806 9
0.205 0.156 10.787 11
0.176 0.156 10.728 10
0.166 0.156 10.767 10
0.205 0.186 10.728 10
0.205 0.186 10.787 9
0.235 0.156 10.787 2
0.205 0.098 10.777 9
0.205 0.098 10.757 10
0.186 0.049 10.757 1
0.166 0.009 10.738 9
0.166 0.009 10.699 10
0.127 -0.019 10.699 1
0.117 -0.019 10.581 9
0.186 -0.019 10.571 11
0.215 -0.029 10.62 10
0.264 -0.009 10.64 10
0.254 0.009 10.689 10
0.225 0.009 10.689 9
0.225 0.098 10.689 2
0.215 0.205 10.689 9
0.196 0.235 10.718 11
0.156 0.235 10.767 9
0.156 0.294 10.767 1
0.147 0.205 10.718 9
0.147 0.205 10.728 11
0.176 0.147 10.728 1
0.196 0.176 10.679 8
0.215 0.127 10.65 11
0.215 0.127 10.63 9
0.186 0.088 10.65 11
0.156 0.058 10.62 10
0.107 0.019 10.561 11
0.088 0.019 10.522 9
0.078 0.009 10.542 11
0.078 0.009 10.551 9
0.147 0.009 10.551 1
0.176 0.039 10.699 9
0.225 0.058 10.846 11
0.225 0.058 10.865 9
0.176 0.098 10.806 11
0.117 0.156 10.767 10
0.117 0.156 10.708 10
0.117 0.196 10.708 1
0.166 0.205 10.718 9
0.225 0.205 10.699 11
0.294 0.205 10.708 9
0.294 0.196 10.708 1
0.264 0.215 10.718 9
0.205 0.147 10.708 11
0.166 0.147 10.689 9
0.166 0.117 10.689 2
0.009 0.117 10.689 8
0.107 0.058 10.689 2
0.049 0.009 10.708 9
0.058 -0.039 10.708 11
0.078 -0.068 10.757 9
0.127 -0.078 10.777 10
0.147 -0.078 10.797 10
0.147 -0.068 10.797 1
0.147 -0.019 10.797 12
0.127 0.058 10.797 8
0.117 0.137 10.797 10
0.098 0.166 10.767 12
0.098 0.196 10.738 8
0.156 0.245 10.708 10
0.176 0.245 10.6 10
0.176 0.225 10.6 1
0.205 0.225 10.542 9
0.254 0.215 10.522 11
0.254 0.215 10.551 9
0.205 0.098 10.551 1
0.176 0.029 10.571 9
0.196 -0.009 10.62 11
0.186 -0.009 10.61 9
0.186 -0.019 10.61 1
0.205 -0.029 10.65 10
0.196 -0.029 10.64 10
0.196 -0.029 10.689 10
0.176 0.019 10.689 1
0.127 0.098 10.718 9
0.117 0.137 10.669 11
0.117 0.137 10.61 9
0.107 0.176 10.61 1
0.147 0.235 10.62 9
0.166 0.205 10.64 11
0.166 0.196 10.64 10
0.127 0.166 10.659 10
0.137 0.049 10.738 10
0.294 0.049 10.816 10
0.196 0.029 10.816 1
0.196 -0.029 10.885 9
0.186 -0.039 10.914 10
0.147 -0.068 10.865 11
0.117 -0.019 10.826 9
0.098 0.019 10.797 11
0.098 0.049 10.748 10
0.147 0.205 10.65 9
0.147 0.156 10.65 2
0.205 0.235 10.6 9
0.235 0.215 10.561 10
0.254 0.215 10.581 10
0.225 0.225 10.532 10
0.245 0.147 10.571 11
0.215 0.107 10.551 9
0.186 0.088 10.62 11
0.186 0.088 10.738 9
0.186 0.049 10.738 1
0.156 -0.019 10.816 10
0.137 -0.068 10.787 10
0.098 -0.068 10.738 10
0.098 -0.098 10.738 1
0.098 -0.058 10.689 9
0.098 -0.049 10.64 11
0.117 0.009 10.6 10
0.156 0.009 10.591 9
0.156 0.078 10.591 1
0.186 0.156 10.581 10
0.264 0.205 10.61 10
0.333 0.205 10.63 9
0.333 0.127 10.63 2
0.353 0.078 10.65 9
0.353 0.078 10.806 9
0.333 0.068 10.718 1
0.264 0.068 10.777 10
0.264 0.029 10.777 1
0.215 0.029 10.797 9
0.147 0.009 10.826 11
0.117 0.009 10.806 9
0.078 0.019 10.826 10
0.058 0.039 10.855 11
0.058 0.039 10.797 9
0.078 0.088 10.797 1
0.068 0.137 10.728 10
0.088 0.127 10.728 10
0.088 0.127 10.64 9
0.137 0.107 10.64 2
0.176 0.088 10.532 9
0.156 0.107 10.473 10
0.156 0.107 10.522 10
0.176 0.137 10.522 1
0.235 0.058 10.61 9
0.274 0.009 10.728 11
0.274 0.009 10.806 9
0.245 -0.009 10.806 1
0.254 0.009 10.826 10
0.186 0.029 10.806 10
0.186 0.029 10.767 9
0.078 0.068 10.767 2
0.009 0.098 10.748 9
-0.019 0.098 10.787 11
0.0 0.098 10.767 9
0.0 0.127 10.767 1
0.058 0.137 10.728 11
0.127 0.176 10.738 9
0.156 0.137 10.708 10
0.215 0.117 10.689 10
0.245 0.088 10.62 10
0.254 0.049 10.522 10
0.225 0.049 10.493 10
0.225 0.029 10.493 1
0.215 0.029 10.551 9
0.245 0.029 10.64 11
0.254 0.029 10.728 9
0.254 0.009 10.728 1
0.245 0.029 10.797 9
0.147 0.039 10.787 11
0.078 0.039 10.797 9
0.078 0.088 10.797 2
0.068 0.098 10.728 9
0.088 0.098 10.757 10
0.117 0.068 10.718 10
0.176 0.156 10.679 10
0.176 0.156 10.699 10
0.235 0.235 10.699 1
0.225 0.235 10.679 9
0.205 0.215 10.65 11
0.205 0.215 10.61 9
0.196 0.147 10.61 1
0.156 0.098 10.561 10
0.137 0.009 10.551 10
0.137 0.009 10.63 9
0.156 -0.039 10.63 1
0.166 -0.029 10.718 10
0.166 -0.019 10.787 10
0.107 -0.009 10.797 11
0.029 0.039 10.816 9
0.019 0.078 10.797 11
0.049 0.107 10.748 10
0.196 0.078 10.718 9
0.254 0.147 10.679 11
0.294 0.186 10.64 10
0.254 0.186 10.61 10
0.254 0.166 10.61 1
0.205 0.147 10.551 9
0.186 0.098 10.571 11
0.029 0.098 10.522 9
0.147 0.078 10.522 1
0.137 0.039 10.532 9
0.166 -0.009 10.62 11
0.186 -0.009 10.728 9
0.186 -0.029 10.728 1
0.176 -0.029 10.816 10
0.176 -0.029 10.806 9
0.147 -0.049 10.806 1
0.078 -0.039 10.816 10
0.039 -0.029 10.797 10
0.039 -0.029 10.806 10
0.078 0.0 10.806 1
0.156 0.039 10.757 9
0.196 0.107 10.767 11
0.245 0.215 10.738 10
0.254 0.254 10.669 10
0.264 0.254 10.63 9
0.264 0.245 10.63 1
0.264 0.166 10.64 10
0.245 0.068 10.64 10
0.245 0.068 10.669 10
0.186 0.009 10.669 1
0.156 0.009 10.699 9
0.156 0.009 10.65 10
0.176 0.049 10.65 1
0.186 0.049 10.65 9
0.186 0.039 10.65 1
0.235 0.049 10.65 10
0.245 0.029 10.728 9
0.186 0.0 10.777 11
0.078 -0.009 10.797 10
-0.029 -0.019 10.777 10
-0.019 0.019 10.757 12
0.029 0.088 10.728 9
0.176 0.245 10.718 9
0.176 0.196 10.718 1
0.245 0.245 10.738 9
0.294 0.264 10.718 11
0.264 0.196 10.718 10
0.264 0.196 10.689 1
0.235 0.098 10.659 8
0.215 0.039 10.581 12
0.186 0.019 10.581 9
0.176 -0.019 10.581 10
0.186 -0.009 10.6 12
0.176 0.019 10.65 8
0.127 0.039 10.718 11
0.088 0.019 10.797 9
0.049 0.019 10.787 10
0.049 0.029 10.787 1
0.049 0.019 10.728 10
0.107 0.019 10.738 9
0.107 0.009 10.738 2
0.176 0.058 10.689 9
0.225 0.107 10.65 10
0.225 0.107 10.64 9
0.264 0.186 10.64 2
0.235 0.196 10.561 10
0.196 0.147 10.542 10
0.186 0.127 10.581 9
0.147 0.088 10.64 13
0.117 0.058 10.669 8
0.137 0.009 10.61 10
0.186 -0.009 10.61 10
0.186 -0.009 10.689 9
0.245 -0.009 10.689 2
0.215 -0.009 10.816 9
0.215 -0.009 10.885 10
0.156 0.019 10.885 1
0.098 0.009 10.846 9
0.098 0.009 10.885 10
0.019 0.068 10.885 1
0.009 0.098 10.865 10
0.049 0.098 10.826 12
0.049 0.049 10.826 1
0.127 0.088 10.767 7
0.147 0.088 10.767 10
0.196 0.137 10.699 11
0.196 0.127 10.65 16
0.166 0.117 10.64 10
0.127 0.049 10.65 10
0.078 0.039 10.63 10
0.039 0.058 10.581 10
0.049 0.039 10.571 10
0.107 0.009 10.669 10
0.186 -0.039 10.748 10
0.264 -0.049 10.787 10
0.215 -0.029 10.767 10
0.186 0.019 10.757 10
0.147 0.078 10.738 10
0.147 0.127 10.738 10
0.147 0.127 10.728 10
0.196 0.107 10.669 10
0.225 0.098 10.65 10
0.245 0.058 10.669 10
0.205 0.009 10.659 10
0.186 -0.029 10.61 11
0.186 -0.029 10.64 5
0.176 -0.019 10.64 14
0.176 -0.019 10.6 10
0.264 0.068 10.679 10
0.333 0.029 10.787 10
0.343 0.029 10.797 10
0.274 0.049 10.738 10
0.215 0.107 10.718 10
0.107 0.117 10.728 10
0.088 0.127 10.718 10
0.117 0.107 10.708 10
0.137 0.088 10.679 10
0.147 0.049 10.718 10
0.127 0.009 10.728 10
0.098 -0.049 10.679 10
0.049 -0.058 10.659 10
0.068 -0.058 10.669 10
0.088 -0.039 10.699 10
0.147 -0.019 10.699 10
0.245 -0.009 10.728 10
0.333 0.039 10.777 11
0.333 0.039 10.826 6
0.343 0.039 10.826 1
0.274 0.029 10.826 10
0.196 0.029 10.836 9
0.196 0.0 10.836 1
0.127 0.029 10.826 10
0.088 0.009 10.806 10
0.117 0.029 10.797 10
0.166 0.058 10.757 10
0.166 0.058 10.699 10
0.186 0.058 10.699 1
0.215 0.049 10.65 9
0.196 0.019 10.63 11
0.166 -0.009 10.581 10
0.166 -0.009 10.532 9
0.166 -0.029 10.532 1
0.156 -0.039 10.561 12
0.186 0.117 10.581 7
0.186 0.0 10.581 2
0.186 0.0 10.591 9
0.196 0.019 10.591 1
0.254 0.049 10.591 9
0.264 0.049 10.659 10
0.264 0.098 10.659 1
0.294 0.107 10.757 9
0.294 0.107 10.836 10
0.245 0.078 10.836 1
0.186 0.088 10.836 10
0.137 0.098 10.836 10
0.107 0.098 10.787 9
0.137 0.068 10.787 12
0.215 0.019 10.777 9
0.245 -0.009 10.728 11
0.264 -0.009 10.669 9
0.264 -0.039 10.669 1
0.196 -0.019 10.64 10
0.107 -0.009 10.61 9
0.058 0.009 10.561 10
0.068 0.009 10.6 11
0.107 0.039 10.63 10
0.156 0.068 10.669 10
0.166 0.068 10.63 9
0.166 0.039 10.63 2
0.156 0.029 10.65 9
0.166 0.049 10.699 11
0.166 0.049 10.659 9
0.166 0.019 10.659 1
0.196 0.039 10.62 9
0.196 0.049 10.62 12
0.196 0.049 10.63 1
0.215 0.039 10.62 8
0.235 0.039 10.581 9
0.245 0.029 10.542 11
0.225 0.029 10.502 10
0.225 0.029 10.473 9
0.205 0.039 10.473 2
0.186 0.009 10.483 9
0.225 0.0 10.571 10
0.205 -0.039 10.659 11
0.205 -0.039 10.738 9
0.205 -0.009 10.738 1
0.156 0.058 10.797 10
0.127 0.107 10.865 10
0.107 0.127 10.865 10
0.107 0.127 10.914 1
0.127 0.107 10.895 10
0.147 0.107 10.855 9
0.147 0.088 10.855 1
0.196 0.068 10.797 9
0.274 0.068 10.806 10
0.274 0.058 10.806 1
0.254 0.058 10.797 9
0.254 0.029 10.797 1
0.254 0.039 10.738 9
0.215 0.049 10.64 11
0.186 0.039 10.581 9
0.176 0.068 10.561 11
0.147 0.068 10.6 9
0.147 0.049 10.6 2
0.127 0.0 10.591 9
0.284 0.0 10.581 9
0.186 0.0 10.581 2
0.245 0.009 10.659 9
0.274 0.039 10.699 11
0.343 0.058 10.826 9
0.294 0.078 10.885 11
0.294 0.078 10.865 9
0.196 0.127 10.865 1
0.127 0.117 10.924 9
0.098 0.058 10.875 11
0.098 0.058 10.767 9
0.147 0.009 10.767 1
0.176 0.009 10.718 10
0.156 -0.009 10.669 10
0.156 -0.009 10.61 10
0.156 -0.019 10.61 1
0.176 0.0 10.542 9
0.176 -0.049 10.473 11
0.127 -0.049 10.453 9
0.127 0.019 10.453 1
0.117 0.029 10.463 10
0.127 0.029 10.522 10
0.166 0.029 10.6 9
0.166 0.058 10.6 2
0.245 0.078 10.679 9
0.254 0.098 10.738 10
0.254 0.098 10.777 10
0.254 0.127 10.777 1
0.176 0.127 10.806 9
0.127 0.117 10.797 11
0.127 0.117 10.816 9
0.117 0.068 10.816 1
0.127 0.058 10.777 10
0.156 0.029 10.757 10
0.156 0.029 10.797 9
0.147 0.049 10.797 1
0.127 0.049 10.728 10
0.098 0.029 10.62 10
0.039 0.039 10.561 11
0.009 0.0 10.532 9
0.029 -0.009 10.551 10
0.049 0.0 10.6 11
0.107 -0.019 10.659 9
0.215 0.019 10.65 11
0.313 0.049 10.689 10
0.343 0.049 10.748 10
0.343 0.068 10.748 1
0.323 0.088 10.757 9
0.254 0.156 10.777 11
0.235 0.156 10.757 9
0.205 0.117 10.738 11
0.205 0.117 10.718 9
0.196 0.117 10.718 1
0.186 0.127 10.669 9
0.137 0.107 10.669 11
0.058 0.049 10.689 10
0.0 -0.039 10.65 10
-0.009 -0.088 10.61 10
0.058 -0.117 10.6 11
0.107 -0.166 10.61 10
0.147 -0.009 10.689 9
0.147 -0.156 10.689 1
0.225 -0.088 10.757 10
0.304 0.0 10.767 10
0.313 0.0 10.816 9
0.313 0.049 10.816 1
0.274 0.147 10.816 10
0.225 0.166 10.816 10
0.186 0.166 10.787 10
0.186 0.176 10.787 1
0.137 0.176 10.748 9
0.147 0.117 10.728 11
0.176 0.068 10.748 9
0.156 0.029 10.738 11
0.147 -0.127 10.738 9
0.147 -0.009 10.738 1
0.156 -0.009 10.708 10
0.156 -0.009 10.669 9
0.156 0.009 10.669 1
0.166 -0.009 10.62 10
0.166 -0.009 10.532 10
0.166 0.019 10.532 1
0.156 -0.009 10.493 9
0.225 -0.009 10.522 11
0.284 -0.039 10.571 10
0.333 -0.029 10.708 9
0.323 0.0 10.777 11
0.284 0.078 10.806 10
0.205 0.117 10.777 9
0.117 0.156 10.767 11
0.098 0.176 10.767 10
0.117 0.147 10.806 10
0.117 0.147 10.777 10
0.088 0.088 10.777 1
0.078 0.029 10.748 9
0.049 0.0 10.757 18
0.019 -0.058 10.699 10
0.039 -0.039 10.61 10
0.078 -0.019 10.532 10
0.147 -0.029 10.571 20
0.166 -0.019 10.581 10
0.205 0.029 10.62 11
0.294 0.019 10.728 9
0.353 0.039 10.806 10
0.333 0.058 10.836 10
0.225 0.098 10.816 10
0.098 0.147 10.836 10
0.0 0.137 10.836 10
0.029 0.117 10.855 10
0.107 0.127 10.855 10
0.137 0.058 10.826 10
0.147 0.009 10.836 11
0.098 -0.058 10.738 9
0.088 -0.088 10.63 10
0.068 -0.078 10.591 5
0.078 -0.039 10.62 15
0.098 0.0 10.65 10
0.225 0.029 10.679 10
0.264 0.058 10.718 10
0.304 0.078 10.757 10
0.274 0.049 10.728 10
0.225 0.029 10.748 11
0.166 0.078 10.718 9
0.156 0.127 10.689 20
0.156 0.147 10.64 10
0.147 0.127 10.65 10
0.127 0.098 10.65 10
0.117 0.088 10.591 10
0.088 0.058 10.542 10
0.088 -0.009 10.571 10
0.127 -0.049 10.61 10
0.147 -0.068 10.689 10
0.186 -0.088 10.748 10
0.186 -0.088 10.806 6
0.215 -0.058 10.806 1
0.186 -0.009 10.855 10
0.137 0.019 10.865 10
0.068 0.019 10.855 10
0.068 0.058 10.855 1
0.078 0.098 10.777 9
0.137 0.156 10.757 11
0.147 0.156 10.689 9
0.147 0.215 10.689 1
0.176 0.225 10.659 9
0.196 0.215 10.679 11
0.196 0.215 10.65 9
0.186 0.137 10.65 1
0.166 0.098 10.561 10
0.176 0.009 10.532 10
0.176 0.009 10.473 9
0.156 -0.049 10.473 2
0.186 -0.039 10.502 9
0.225 -0.068 10.551 10
0.235 -0.068 10.669 11
0.205 -0.098 10.767 9
0.176 -0.039 10.865 11
0.176 -0.039 10.708 9
0.137 -0.029 10.826 1
0.117 0.029 10.875 10
0.127 0.088 10.865 10
0.147 0.147 10.885 10
0.156 0.147 10.885 10
0.156 0.147 10.728 9
0.166 0.147 10.816 2
0.156 0.147 10.777 9
0.137 0.107 10.728 10
0.127 0.088 10.62 11
0.137 0.088 10.522 9
0.137 0.039 10.522 1
0.205 0.039 10.493 10
0.254 -0.009 10.473 10
0.215 -0.009 10.522 10
0.205 -0.068 10.63 10
0.215 -0.068 10.689 11
0.264 -0.068 10.787 9
0.264 -0.019 10.787 1
0.284 -0.049 10.855 9
0.235 -0.019 10.855 11
0.235 -0.019 10.816 9
0.186 -0.019 10.816 1
0.127 0.009 10.846 10
0.166 0.058 10.797 10
0.166 0.058 10.757 9
0.186 0.078 10.757 1
0.245 0.127 10.679 10
0.254 0.235 10.65 10
0.254 0.235 10.63 10
0.225 0.215 10.63 1
0.156 0.147 10.561 9
0.117 0.127 10.571 11
0.039 0.078 10.591 10
0.068 0.049 10.581 9
0.107 0.029 10.699 11
0.107 0.029 10.542 9
0.176 -0.009 10.669 1
0.235 -0.049 10.748 10
0.225 -0.088 10.748 10
0.225 -0.098 10.787 11
0.147 -0.098 10.777 9
0.147 -0.088 10.777 1
0.107 -0.039 10.767 9
0.127 -0.019 10.748 11
0.284 -0.019 10.679 9
0.225 0.039 10.679 1
0.254 0.127 10.61 10
0.215 0.264 10.551 10
0.215 0.264 10.473 9
0.205 0.284 10.473 2
0.186 0.205 10.473 9
0.176 0.176 10.434 10
0.088 0.137 10.453 11
0.127 0.068 10.444 9
0.176 0.039 10.522 11
0.176 0.039 10.61 9
0.215 0.009 10.61 1
0.215 -0.019 10.689 10
0.166 -0.058 10.699 10
0.058 -0.058 10.718 9
0.058 -0.029 10.718 2
-0.029 -0.009 10.757 9
-0.078 -0.009 10.767 11
-0.049 0.009 10.797 9
0.039 0.029 10.748 11
0.117 0.098 10.718 11
0.225 0.166 10.708 9
0.304 0.225 10.689 9
0.284 0.215 10.61 11
0.284 0.215 10.571 9
0.245 0.245 10.571 2
0.215 0.186 10.591 9
0.186 0.117 10.591 10
0.215 0.039 10.679 11
0.254 -0.029 10.777 9
0.215 -0.098 10.875 11
0.215 -0.098 10.944 9
0.156 -0.078 10.944 1
0.098 -0.068 10.983 9
0.039 -0.078 10.963 11
0.039 -0.078 10.895 9
0.039 -0.107 10.895 2
0.068 -0.039 10.846 9
0.117 0.009 10.846 10
0.117 0.009 10.777 10
0.156 0.078 10.777 1
0.196 0.147 10.748 9
0.205 0.127 10.669 11
0.205 0.127 10.61 9
0.205 0.166 10.61 1
0.235 0.107 10.551 9
0.196 0.098 10.581 12
0.196 0.098 10.61 8
0.137 0.019 10.61 1
0.147 -0.009 10.689 10
0.225 -0.009 10.728 10
0.225 -0.009 10.885 10
0.274 -0.029 10.846 1
0.254 -0.019 10.875 9
0.176 -0.058 10.934 11
0.078 -0.137 10.865 10
0.0 -0.137 10.846 9
0.019 -0.137 10.826 11
0.058 -0.078 10.757 10
0.088 -0.078 10.708 10
0.088 0.039 10.708 1
0.088 0.156 10.708 9
0.088 0.176 10.63 11
0.117 0.205 10.591 9
0.098 0.205 10.551 11
0.254 0.205 10.493 9
0.196 0.147 10.493 1
0.254 0.058 10.571 10
0.323 0.058 10.64 9
0.323 0.0 10.64 2
0.46 -0.068 10.699 9
0.46 -0.068 10.797 9
0.49 -0.039 10.797 3
0.441 -0.039 10.855 8
0.323 -0.019 10.855 11
0.176 -0.009 10.826 9
0.029 -0.049 10.816 10
-0.009 -0.049 10.728 11
0.009 -0.049 10.689 9
0.009 -0.009 10.689 2
0.049 0.019 10.65 9
0.088 0.098 10.62 10
0.098 0.147 10.561 10
0.107 0.205 10.493 10
0.127 0.166 10.453 11
0.166 0.009 10.512 9
0.166 0.098 10.512 1
0.186 0.049 10.502 9
0.245 0.0 10.483 11
0.304 -0.156 10.532 9
0.304 -0.009 10.532 1
0.372 -0.009 10.65 10
0.411 -0.039 10.836 10
0.304 -0.039 10.865 10
0.304 -0.068 10.865 1
0.186 -0.078 10.885 9
0.058 -0.127 10.865 11
-0.029 -0.166 10.865 9
0.039 -0.127 10.777 11
0.117 -0.078 10.767 9
0.156 0.009 10.748 11
0.215 0.098 10.689 9
0.215 0.186 10.64 11
0.205 0.176 10.571 10
0.245 0.127 10.522 10
0.245 0.127 10.512 10
0.215 0.107 10.512 1
0.215 0.049 10.581 9
0.274 0.0 10.581 11
0.274 0.0 10.64 1
0.313 -0.049 10.777 8
0.343 -0.068 10.895 12
0.274 -0.078 10.875 9
0.137 -0.098 10.895 10
0.029 -0.107 10.826 10
0.029 -0.107 10.787 9
0.039 -0.117 10.787 2
0.068 -0.068 10.797 9
0.068 -0.068 10.748 10
0.147 0.029 10.748 1
0.176 0.049 10.659 10
0.254 0.098 10.669 9
0.254 0.107 10.6 11
0.245 0.107 10.581 12
0.245 0.107 10.6 7
0.225 0.068 10.6 1
0.196 0.058 10.61 10
0.196 0.058 10.767 9
0.215 0.049 10.699 1
0.215 0.058 10.738 10
0.186 0.019 10.806 11
0.166 -0.049 10.836 9
0.127 -0.078 10.816 11
0.127 -0.078 10.797 9
0.127 -0.068 10.797 1
0.127 -0.117 10.787 10
0.137 -0.049 10.806 10
0.137 -0.049 10.797 9
0.147 0.019 10.797 1
0.215 0.039 10.748 10
0.215 0.107 10.669 10
0.215 0.107 10.65 10
0.196 0.156 10.65 1
0.137 0.137 10.62 9
0.137 0.068 10.532 10
0.137 0.068 10.551 10
0.147 0.068 10.551 1
0.166 0.039 10.561 9
0.196 0.0 10.61 11
0.196 0.0 10.728 9
0.225 -0.029 10.728 1
0.284 -0.009 10.787 10
0.245 -0.019 10.826 10
0.176 0.019 10.748 11
0.098 0.049 10.787 9
0.068 0.009 10.787 10
0.078 -0.019 10.787 11
0.088 -0.019 10.718 9
0.088 -0.029 10.718 1
0.137 0.019 10.679 10
0.137 0.019 10.522 9
0.166 0.029 10.669 1
0.166 0.049 10.669 11
0.166 0.127 10.61 9
0.137 0.156 10.571 10
0.294 0.156 10.542 10
0.186 0.137 10.542 1
0.176 0.098 10.532 9
0.225 0.068 10.542 11
0.225 0.068 10.689 9
0.264 0.029 10.689 1
0.235 0.009 10.787 9
0.196 -0.009 10.846 11
0.039 -0.009 10.846 9
0.098 -0.019 10.846 1
0.029 -0.049 10.855 10
0.019 -0.019 10.836 10
0.019 -0.019 10.777 10
0.068 0.009 10.738 10
0.117 0.058 10.65 10
0.137 0.049 10.65 11
0.147 0.049 10.6 9
0.147 0.068 10.6 1
0.166 0.039 10.571 10
0.166 0.039 10.542 10
0.156 0.039 10.483 10
0.186 0.039 10.444 10
0.186 0.107 10.512 10
0.254 0.147 10.61 11
0.304 0.147 10.699 9
0.304 0.078 10.699 1
0.304 0.049 10.748 9
0.254 -0.039 10.806 11
0.156 -0.039 10.826 9
0.156 -0.058 10.826 1
0.098 -0.088 10.836 10
0.058 -0.078 10.718 10
0.029 -0.019 10.718 11
0.058 0.039 10.738 9
0.068 0.098 10.757 11
0.117 0.098 10.728 9
0.117 0.107 10.728 1
0.107 0.068 10.718 10
0.127 0.068 10.689 9
0.127 0.039 10.689 1
0.127 0.0 10.669 10
0.166 -0.009 10.679 10
0.196 0.147 10.689 9
0.196 0.009 10.689 2
0.245 0.009 10.728 9
0.343 0.019 10.767 11
0.431 0.019 10.797 9
0.431 0.049 10.797 1
0.333 0.058 10.816 9
0.245 0.009 10.757 11
0.088 0.009 10.748 9
0.137 0.009 10.748 1
0.088 0.0 10.738 9
0.068 -0.039 10.728 11
0.068 -0.039 10.718 10
0.098 -0.009 10.679 10
0.127 0.049 10.669 10
0.166 0.147 10.679 11
0.205 0.147 10.659 9
0.205 0.088 10.659 1
0.215 0.088 10.62 9
0.147 0.058 10.571 11
0.147 0.039 10.571 10
0.205 0.029 10.581 10
0.235 0.009 10.63 10
0.235 0.009 10.728 9
0.254 0.0 10.728 2
0.235 -0.049 10.826 9
0.147 -0.029 10.797 11
0.068 -0.029 10.787 9
0.068 -0.049 10.787 1
0.049 -0.068 10.797 9
0.098 -0.039 10.797 11
0.137 -0.039 10.767 9
0.137 0.009 10.767 1
0.156 0.058 10.718 10
0.186 0.127 10.669 10
0.186 0.127 10.63 10
0.156 0.196 10.63 1
0.166 0.205 10.62 9
0.166 0.205 10.551 10
0.186 0.215 10.551 1
0.176 0.166 10.532 9
0.196 0.107 10.532 11
0.176 0.029 10.551 10
0.186 -0.029 10.63 10
0.225 -0.029 10.748 12
0.225 -0.117 10.748 1
0.205 -0.205 10.826 7
0.127 -0.196 10.826 10
0.039 -0.166 10.797 10
0.0 -0.098 10.777 10
-0.009 -0.039 10.787 11
0.049 -0.019 10.748 9
0.049 -0.019 10.738 10
0.147 0.029 10.738 1
0.225 0.127 10.738 10
0.225 0.127 10.708 9
0.264 0.137 10.708 1
0.254 0.176 10.689 12
0.196 0.205 10.591 8
0.196 0.205 10.551 9
0.176 0.186 10.551 2
0.205 0.156 10.532 9
0.205 0.098 10.493 11
0.205 0.098 10.502 9
0.235 0.039 10.502 1
0.225 0.0 10.551 9
0.205 -0.049 10.708 11
0.205 -0.049 10.797 9
0.215 -0.049 10.797 1
0.147 -0.098 10.806 13
0.068 -0.068 10.836 10
-0.019 -0.058 10.875 10
-0.049 -0.058 10.885 10
0.0 -0.039 10.836 10
0.029 -0.029 10.777 10
0.068 0.058 10.777 10
0.107 0.088 10.708 10
0.107 0.137 10.708 10
0.127 0.098 10.64 10
0.147 0.166 10.591 10
0.156 0.147 10.561 10
0.176 0.098 10.542 10
0.107 0.068 10.581 10
0.156 0.019 10.61 10
0.205 -0.039 10.718 10
0.264 -0.088 10.816 10
0.274 -0.117 10.914 10
0.205 -0.107 10.865 10
0.137 -0.098 10.855 10
0.137 -0.049 10.826 10
0.156 0.0 10.728 10
0.176 0.058 10.699 10
0.186 0.127 10.64 10
0.196 0.225 10.591 10
0.156 0.245 10.561 10
0.107 0.186 10.532 10
0.098 0.137 10.542 10
0.088 0.078 10.542 10
0.117 0.039 10.63 10
0.147 -0.009 10.728 10
0.205 -0.078 10.855 10
0.156 -0.088 10.816 10
0.078 -0.058 10.855 10
0.049 -0.029 10.846 10
0.049 -0.029 10.767 10
0.049 -0.019 10.738 10
0.058 0.0 10.738 10
0.078 0.019 10.777 10
0.068 0.019 10.757 10
0.166 0.107 10.679 11
0.205 0.147 10.659 10
0.205 0.147 10.689 10
0.215 0.137 10.689 1
0.264 0.127 10.669 9
0.235 0.088 10.63 11
0.264 0.088 10.64 10
0.284 0.039 10.708 9
0.235 -0.029 10.738 11
0.186 -0.049 10.787 10
0.137 -0.049 10.797 10
0.137 -0.078 10.797 1
0.058 -0.117 10.767 9
0.068 -0.107 10.728 11
0.068 -0.107 10.718 9
0.078 -0.058 10.718 1
0.117 -0.029 10.777 9
0.176 -0.009 10.757 11
0.225 0.029 10.757 10
0.274 0.078 10.718 10
0.264 0.068 10.62 10
0.264 0.068 10.6 9
0.205 0.098 10.6 2
0.156 0.078 10.63 9
0.107 0.058 10.64 10
0.107 0.058 10.728 10
0.078 0.009 10.728 1
0.117 0.0 10.738 9
0.088 0.009 10.718 11
0.117 0.019 10.561 10
0.117 0.019 10.669 1
0.156 0.019 10.679 8
0.156 0.039 10.679 2
0.205 0.019 10.62 9
0.225 0.039 10.61 10
0.264 0.039 10.591 10
0.264 0.049 10.591 1
0.235 0.058 10.581 9
0.245 0.058 10.571 11
0.264 0.058 10.571 9
0.264 0.068 10.571 1
0.235 0.039 10.65 10
0.156 -0.029 10.728 10
0.107 -0.029 10.787 9
0.107 -0.009 10.787 2
0.049 -0.009 10.777 9
0.058 0.019 10.757 10
0.078 0.019 10.748 10
0.078 0.0 10.748 1
0.098 0.019 10.748 9
0.137 0.019 10.797 11
0.166 0.049 10.728 9
0.166 0.078 10.679 11
0.166 0.078 10.522 9
0.176 0.068 10.65 1
0.137 0.029 10.591 10
0.147 0.0 10.542 10
0.137 0.0 10.453 10
0.137 -0.029 10.453 1
0.156 -0.049 10.512 9
0.156 -0.049 10.669 10
0.186 -0.049 10.61 1
0.196 -0.029 10.708 9
0.196 -0.009 10.718 11
0.137 0.019 10.708 9
0.117 0.107 10.757 11
0.098 0.098 10.797 10
0.117 0.098 10.806 10
0.147 0.088 10.728 10
0.156 0.127 10.728 11
0.196 0.127 10.718 9
0.196 0.049 10.718 1
0.176 -0.029 10.65 9
0.156 -0.049 10.64 11
0.098 -0.049 10.571 9
0.098 -0.029 10.571 1
0.049 0.0 10.483 10
0.029 0.0 10.424 10
0.058 0.0 10.502 9
0.058 0.009 10.502 2
0.098 0.0 10.64 9
0.098 -0.029 10.777 10
0.117 -0.029 10.836 10
0.117 -0.049 10.836 1
0.137 -0.019 10.914 9
0.176 0.0 10.895 11
0.176 0.0 10.885 9
0.196 0.029 10.885 1
0.254 0.039 10.895 9
0.264 0.049 10.924 11
0.264 0.049 10.934 9
0.254 0.049 10.934 1
0.205 0.039 10.836 10
0.156 0.0 10.787 10
0.156 0.0 10.748 9
0.098 -0.058 10.748 2
0.0 -0.137 10.708 9
-0.049 -0.137 10.708 11
-0.049 -0.137 10.551 9
-0.107 -0.137 10.581 1
-0.088 -0.088 10.561 9
0.029 -0.019 10.571 11
0.137 0.0 10.679 10
0.254 0.0 10.699 10
0.254 0.009 10.699 1
0.294 0.039 10.718 9
0.245 0.098 10.728 10
0.196 0.098 10.767 10
0.196 0.107 10.767 1
0.166 0.049 10.767 9
0.186 0.039 10.728 11
0.186 0.039 10.738 9
0.186 0.029 10.738 1
0.127 0.009 10.728 10
0.088 -0.049 10.669 10
0.088 -0.049 10.65 9
0.088 -0.098 10.65 2
0.098 -0.117 10.591 9
0.098 -0.176 10.532 10
0.098 -0.176 10.561 10
0.127 -0.137 10.561 1
0.156 -0.137 10.571 9
0.186 -0.088 10.581 11
0.186 -0.088 10.6 9
0.166 -0.009 10.6 2
0.107 0.068 10.669 8
0.049 0.088 10.728 11
0.058 0.088 10.767 10
0.068 0.088 10.738 10
0.107 0.049 10.64 10
0.117 0.009 10.62 11
0.176 0.009 10.679 9
0.176 0.0 10.679 1
0.235 -0.039 10.757 9
0.225 -0.039 10.797 11
0.196 -0.039 10.748 9
0.186 -0.039 10.64 11
0.205 -0.039 10.512 10
0.254 -0.049 10.561 10
0.284 -0.058 10.669 10
0.284 -0.058 10.797 10
0.264 -0.068 10.797 1
0.225 -0.058 10.816 9
0.147 -0.019 10.816 10
0.147 -0.019 10.826 10
0.049 0.019 10.826 1
0.068 0.039 10.855 9
0.196 0.029 10.895 11
0.196 0.029 10.846 9
0.225 0.009 10.846 1
0.225 0.029 10.855 10
0.215 0.049 10.875 10
0.176 0.049 10.816 10
0.176 -0.009 10.816 1
0.166 -0.078 10.777 9
0.127 -0.107 10.728 11
0.147 -0.107 10.777 9
0.147 -0.117 10.777 1
0.176 -0.127 10.797 9
0.147 -0.107 10.836 11
0.196 -0.107 10.806 9
0.196 -0.058 10.806 4
0.176 -0.058 10.787 7
0.156 -0.009 10.689 10
0.127 -0.009 10.708 10
0.127 -0.019 10.708 1
0.156 -0.009 10.679 9
0.127 -0.039 10.63 11
0.107 -0.039 10.65 9
0.147 -0.029 10.6 10
0.215 0.009 10.551 11
0.215 0.009 10.522 9
0.284 0.029 10.522 1
0.323 0.029 10.483 10
0.343 -0.009 10.502 10
0.343 -0.009 10.561 9
0.343 -0.058 10.561 2
0.274 -0.058 10.62 9
0.274 -0.088 10.62 1
0.186 -0.049 10.591 13
0.147 -0.029 10.62 10
0.078 -0.009 10.669 10
0.088 0.019 10.65 10
0.117 0.019 10.63 10
0.107 0.019 10.62 10
0.127 0.029 10.63 10
0.147 0.029 10.65 10
0.127 0.029 10.64 10
0.088 0.019 10.65 10
0.098 0.019 10.63 10
0.127 -0.029 10.63 10
0.166 -0.019 10.542 11
0.205 0.0 10.561 9
0.264 -0.029 10.6 10
0.274 -0.019 10.659 10
0.274 -0.029 10.728 10
0.245 -0.068 10.757 10
0.186 -0.019 10.777 10
0.127 0.0 10.797 10
0.117 0.009 10.728 11
0.147 0.009 10.738 7
0.147 0.049 10.738 1
0.166 0.078 10.718 11
0.186 0.039 10.65 10
0.254 0.029 10.61 10
0.215 0.039 10.561 10
0.205 -0.009 10.532 10
0.176 -0.019 10.561 10
0.176 -0.029 10.6 10
0.215 -0.049 10.61 10
0.254 -0.039 10.669 10
0.254 -0.049 10.738 10
0.205 -0.078 10.797 10
0.107 -0.049 10.767 10
0.078 -0.029 10.787 10
0.098 -0.009 10.718 10
0.137 -0.009 10.728 10
0.205 0.049 10.718 10
0.225 0.049 10.738 10
0.215 0.078 10.718 10
0.205 0.058 10.728 11
0.107 0.058 10.699 9
0.107 0.009 10.699 1
0.127 -0.029 10.61 10
0.127 -0.058 10.581 10
0.127 -0.058 10.522 9
0.137 -0.039 10.522 2
0.137 0.0 10.502 9
0.235 -0.019 10.561 10
0.392 -0.019 10.679 10
0.333 -0.009 10.679 1
0.382 -0.039 10.806 9
0.372 -0.049 10.855 11
0.304 -0.049 10.826 9
0.304 -0.009 10.826 3
0.225 0.029 10.767 8
0.166 0.039 10.826 10
0.176 0.009 10.855 10
0.196 0.009 10.777 10
0.196 0.009 10.738 10
0.235 -0.009 10.738 1
0.284 0.029 10.728 11
0.235 0.029 10.718 10
0.107 0.019 10.718 9
0.049 0.019 10.659 9
0.049 0.009 10.659 1
0.019 -0.009 10.689 10
0.029 -0.019 10.659 10
0.049 -0.019 10.63 9
0.147 -0.039 10.581 11
0.225 -0.049 10.64 10
0.382 -0.049 10.757 10
0.353 -0.098 10.757 1
0.353 -0.137 10.748 9
0.294 -0.088 10.757 11
0.294 -0.088 10.669 9
0.245 -0.068 10.669 1
0.186 -0.009 10.699 9
0.147 0.049 10.669 11
0.186 0.068 10.699 10
0.166 0.088 10.659 10
0.176 0.078 10.64 10
0.137 0.039 10.64 11
0.117 0.039 10.64 9
0.117 0.0 10.64 1
0.088 0.019 10.561 9
0.098 -0.009 10.532 11
0.117 -0.009 10.561 9
0.147 0.0 10.6 11
0.166 0.0 10.63 10
0.166 0.0 10.659 9
0.254 -0.009 10.659 2
0.313 -0.019 10.708 9
0.323 -0.019 10.846 10
0.264 -0.019 10.855 10
0.264 -0.009 10.855 1
0.196 0.058 10.806 9
0.147 0.068 10.806 11
0.147 0.039 10.806 10
0.186 0.009 10.777 10
0.215 0.009 10.738 10
0.215 0.009 10.767 10
0.235 0.019 10.767 1
0.225 0.0 10.777 9
0.215 -0.019 10.699 11
0.127 -0.049 10.591 10
0.068 -0.029 10.522 10
0.068 -0.029 10.365 9
0.088 0.0 10.463 1
0.176 -0.029 10.581 9
0.294 -0.058 10.689 11
0.294 -0.058 10.718 9
0.294 -0.068 10.718 1
0.254 -0.078 10.738 10
0.215 -0.058 10.738 10
0.196 -0.049 10.738 11
0.215 -0.009 10.708 9
0.225 0.019 10.699 10
0.245 0.078 10.699 11
0.215 0.078 10.738 9
0.215 0.088 10.738 1
0.186 0.049 10.718 10
0.147 0.019 10.699 10
0.127 -0.137 10.689 10
0.127 -0.049 10.689 1
0.127 -0.107 10.679 9
0.156 -0.127 10.62 11
0.196 -0.127 10.581 9
0.196 -0.058 10.581 1
0.215 -0.039 10.581 9
0.245 -0.009 10.63 11
0.313 -0.009 10.797 9
0.313 -0.039 10.797 1
0.323 -0.098 10.895 10
0.284 -0.088 10.875 10
0.284 -0.088 10.826 9
0.186 -0.058 10.826 2
0.098 0.039 10.806 9
0.107 0.107 10.748 10
0.107 0.107 10.777 10
0.147 0.127 10.777 1
0.156 0.137 10.757 9
0.166 0.107 10.699 11
0.166 0.107 10.689 9
0.156 0.039 10.689 1
0.137 -0.009 10.669 9
0.147 -0.098 10.61 11
0.147 -0.098 10.532 9
0.107 -0.078 10.532 2
0.137 -0.058 10.561 9
0.098 -0.029 10.63 11
0.107 -0.019 10.728 9
0.147 -0.029 10.806 11
0.196 -0.049 10.855 10
0.186 -0.068 10.846 10
0.166 -0.068 10.757 9
0.235 -0.058 10.738 11
0.254 -0.019 10.699 10
0.264 0.137 10.659 10
0.264 0.019 10.659 1
0.274 0.107 10.659 9
0.215 0.186 10.679 11
0.205 0.186 10.679 9
0.205 0.166 10.679 1
0.186 0.088 10.659 9
0.196 -0.019 10.64 11
0.186 -0.019 10.542 9
0.186 -0.078 10.542 1
0.186 -0.088 10.591 10
0.186 -0.058 10.591 10
0.205 -0.058 10.699 10
0.205 -0.078 10.699 1
0.205 -0.117 10.806 9
0.196 -0.117 10.826 10
0.196 -0.156 10.826 1
0.088 -0.088 10.836 9
0.058 -0.039 10.757 13
0.058 -0.019 10.738 8
0.088 0.137 10.728 9
0.088 0.009 10.728 1
0.156 0.039 10.718 10
0.156 0.107 10.65 10
0.186 0.156 10.62 10
0.205 0.0 10.6 10
0.205 0.147 10.6 1
0.186 0.137 10.581 10
0.156 0.058 10.522 9
0.186 0.019 10.532 10
0.186 0.019 10.62 10
0.225 -0.019 10.62 2
0.225 -0.019 10.561 8
0.225 -0.078 10.561 1
0.274 -0.127 10.571 9
0.294 -0.127 10.64 11
0.294 -0.176 10.757 10
0.245 -0.196 10.806 10
0.245 -0.196 10.708 9
0.196 -0.107 10.708 4
0.107 -0.029 10.679 7
0.049 0.009 10.699 11
0.078 0.009 10.65 9
0.078 0.029 10.65 1
0.137 0.058 10.63 10
0.294 0.058 10.689 9
0.215 0.088 10.689 1
0.264 0.127 10.679 9
0.215 0.107 10.64 11
0.166 0.107 10.6 9
0.117 0.039 10.542 11
0.127 0.0 10.502 10
0.284 0.0 10.502 10
0.166 -0.039 10.502 1
0.205 -0.058 10.522 9
0.225 -0.088 10.659 11
0.205 -0.107 10.787 9
0.166 -0.078 10.836 11
0.127 -0.078 10.885 9
0.127 -0.098 10.885 1
0.088 -0.078 10.846 10
0.088 -0.078 10.836 9
0.137 -0.078 10.836 2
0.225 -0.049 10.836 9
0.264 0.0 10.787 11
0.254 0.049 10.806 9
0.235 0.098 10.748 11
0.196 0.098 10.718 9
0.196 0.117 10.718 1
0.166 0.068 10.64 10
0.196 0.029 10.591 10
0.235 0.019 10.591 10
0.235 0.019 10.502 9
0.235 -0.009 10.502 2
0.205 -0.009 10.502 9
0.215 -0.049 10.571 10
0.196 -0.049 10.689 10
0.196 -0.039 10.689 1
0.186 -0.107 10.855 9
0.127 -0.147 10.885 11
0.127 -0.147 10.875 9
0.049 -0.117 10.875 1
0.029 -0.098 10.836 10
0.078 -0.049 10.787 10
0.078 -0.049 10.826 9
0.088 -0.009 10.826 1
0.147 0.009 10.806 10
0.147 0.039 10.797 10
0.147 0.039 10.767 10
0.137 0.058 10.767 1
0.137 0.088 10.708 9
0.117 0.088 10.669 11
0.166 0.039 10.64 10
0.196 0.0 10.63 9
0.186 -0.039 10.571 11
0.186 -0.039 10.414 9
0.176 -0.078 10.512 1
0.176 -0.098 10.532 10
0.245 -0.117 10.708 10
0.274 -0.166 10.846 11
0.254 -0.166 10.885 9
0.254 -0.176 10.885 1
0.225 -0.127 10.836 9
0.176 -0.088 10.806 11
0.117 -0.088 10.816 9
0.117 -0.068 10.816 1
0.107 -0.088 10.846 10
0.166 -0.058 10.777 10
0.166 -0.058 10.738 9
0.196 0.0 10.738 2
0.186 0.068 10.699 9
0.137 0.127 10.659 10
0.156 0.127 10.6 10
0.156 0.107 10.6 1
0.166 0.068 10.532 10
0.176 0.029 10.542 10
0.176 -0.088 10.581 10
0.215 -0.127 10.738 10
0.245 -0.137 10.806 10
0.215 -0.127 10.865 10
0.156 -0.127 10.836 10
0.156 -0.117 10.836 1
0.078 -0.117 10.797 9
0.058 -0.068 10.767 11
0.098 -0.088 10.738 9
0.147 -0.039 10.679 11
0.225 -0.039 10.659 10
0.225 0.0 10.659 1
0.264 0.058 10.64 9
0.245 0.068 10.591 10
0.205 0.049 10.591 10
0.156 0.029 10.581 10
0.147 0.0 10.532 10
0.137 0.0 10.542 10
0.196 -0.156 10.571 10
0.196 -0.009 10.571 1
0.323 -0.029 10.669 10
0.333 -0.029 10.777 9
0.333 -0.098 10.777 1
0.245 -0.127 10.846 10
0.176 -0.127 10.826 9
0.176 -0.166 10.826 1
0.098 -0.147 10.826 10
0.098 -0.137 10.836 11
0.137 -0.068 10.797 9
0.196 0.0 10.816 11
0.225 0.039 10.836 9
0.225 0.029 10.708 11
0.235 0.029 10.64 9
0.235 -0.009 10.64 1
0.215 -0.009 10.591 10
0.215 -0.009 10.6 9
0.196 -0.029 10.6 1
0.205 -0.029 10.571 10
0.186 -0.039 10.6 10
0.205 -0.039 10.669 10
0.225 -0.009 10.777 10
0.186 -0.009 10.846 11
0.117 -0.009 10.865 9
0.058 -0.029 10.797 11
0.0 -0.039 10.806 11
0.0 -0.039 10.777 8
0.019 -0.058 10.777 1
0.068 -0.068 10.777 10
0.156 -0.068 10.757 10
0.235 -0.058 10.718 10
0.254 -0.058 10.738 10
0.245 -0.068 10.679 10
0.176 -0.058 10.679 11
0.147 -0.049 10.542 9
0.176 -0.029 10.532 10
0.166 0.029 10.561 11
0.225 0.039 10.699 10
0.235 -0.039 10.728 10
0.176 -0.009 10.659 10
0.019 -0.009 10.679 10
0.127 0.019 10.679 1
0.127 0.009 10.659 9
0.147 0.029 10.679 10
0.147 0.029 10.728 10
0.186 0.049 10.728 1
0.186 0.029 10.708 9
0.215 0.039 10.718 11
0.215 0.039 10.63 9
0.196 0.009 10.63 1
0.186 -0.009 10.61 10
0.186 -0.039 10.581 10
0.186 -0.039 10.551 9
0.186 -0.009 10.551 2
0.196 0.058 10.542 9
0.254 0.078 10.6 10
0.264 0.039 10.708 11
0.284 0.019 10.718 9
0.235 0.009 10.679 11
0.225 0.0 10.679 10
0.215 0.0 10.65 9
0.215 0.009 10.65 2
0.235 -0.019 10.689 9
0.215 -0.039 10.689 10
0.215 -0.039 10.679 10
0.235 -0.058 10.679 1
0.245 -0.058 10.61 9
0.215 -0.049 10.591 11
0.215 -0.049 10.493 10
0.235 -0.019 10.444 10
0.254 -0.019 10.522 11
0.254 -0.009 10.571 9
0.284 0.147 10.63 10
0.284 0.019 10.63 1
0.264 0.0 10.689 9
0.235 0.0 10.718 10
0.235 -0.009 10.718 1
0.196 0.029 10.708 9
0.137 0.039 10.689 11
0.127 0.019 10.748 10
0.156 0.009 10.738 10
0.176 -0.019 10.777 10
0.196 -0.029 10.797 10
0.196 -0.029 10.738 9
0.186 -0.068 10.748 11
0.156 -0.078 10.738 10
0.0 -0.078 10.65 10
0.098 -0.107 10.65 1
0.068 -0.078 10.581 10
0.068 -0.019 10.64 9
0.117 0.137 10.689 10
0.274 0.0 10.689 10
0.176 -0.009 10.699 10
0.176 0.019 10.718 10
0.205 0.029 10.718 1
0.205 0.068 10.738 19
0.205 0.088 10.738 10
0.215 0.078 10.728 10
0.274 0.058 10.708 10
0.294 0.049 10.689 10
0.284 0.039 10.708 10
0.245 0.0 10.64 10
0.147 -0.009 10.551 10
0.058 -0.009 10.483 10
0.009 -0.019 10.561 10
0.039 -0.088 10.659 10
0.068 -0.156 10.748 10
0.068 -0.156 10.806 10
0.068 -0.117 10.816 10
0.078 -0.078 10.797 10
0.137 -0.019 10.797 3
0.156 0.009 10.777 17
0.176 0.039 10.806 10
0.254 0.078 10.748 10
0.225 0.107 10.718 10
0.176 0.117 10.699 10
0.137 0.117 10.63 10
0.147 0.049 10.63 10
0.147 0.029 10.61 10
0.176 -0.039 10.65 10
0.156 -0.049 10.708 10
0.156 -0.029 10.777 10
0.176 -0.098 10.826 10
0.186 -0.117 10.944 10
0.098 -0.127 10.954 10
0.058 -0.078 10.944 10
-0.019 -0.029 10.904 10
-0.029 -0.039 10.904 10
0.039 0.0 10.816 10
0.088 0.039 10.777 11
0.127 0.039 10.689 3
0.166 0.009 10.748 11
0.137 -0.039 10.679 10
0.127 -0.068 10.62 10
0.127 -0.068 10.561 10
0.166 -0.068 10.561 1
0.205 -0.049 10.591 9
0.284 -0.058 10.65 11
0.362 -0.058 10.679 10
0.343 -0.058 10.669 9
0.343 -0.039 10.669 1
0.313 -0.029 10.669 10
0.235 -0.039 10.669 10
0.156 -0.049 10.748 10
0.058 -0.049 10.757 10
0.058 -0.029 10.757 1
0.019 -0.019 10.748 10
0.019 -0.019 10.757 9
0.0 0.009 10.757 1
-0.009 0.078 10.679 9
-0.009 0.078 10.718 10
-0.009 0.058 10.718 1
0.009 0.049 10.728 10
0.058 -0.009 10.718 10
0.147 -0.068 10.708 10
0.215 -0.098 10.699 11
0.264 -0.098 10.748 9
0.274 -0.098 10.797 10
0.274 -0.068 10.787 13
0.254 -0.058 10.757 7
0.245 -0.068 10.777 11
0.254 -0.058 10.797 10
0.254 -0.058 10.816 9
0.225 -0.068 10.816 1
0.264 -0.029 10.777 10
0.264 -0.029 10.748 9
0.254 -0.029 10.748 2
0.196 -0.019 10.659 9
0.039 -0.019 10.64 10
0.117 -0.009 10.64 1
0.068 0.019 10.64 9
0.068 0.019 10.65 12
0.068 0.009 10.65 1
0.019 0.0 10.61 8
-0.019 0.0 10.61 9
-0.019 -0.019 10.61 1
-0.019 -0.049 10.591 10
0.009 -0.058 10.6 11
0.039 -0.107 10.581 9
0.049 -0.088 10.61 10
0.019 -0.088 10.679 10
0.019 -0.078 10.679 1
0.068 -0.078 10.669 9
0.068 -0.078 10.65 10
0.117 -0.009 10.65 1
0.215 0.019 10.64 10
0.333 0.029 10.591 10
0.362 0.029 10.6 10
0.343 0.058 10.63 10
0.343 0.058 10.571 9
0.254 0.049 10.571 2
0.186 0.058 10.64 9
0.147 0.029 10.689 11
0.156 0.029 10.748 9
0.186 0.019 10.787 11
0.029 0.019 10.826 9
0.137 -0.009 10.826 1
0.058 -0.029 10.816 9
0.068 -0.078 10.885 11
0.068 -0.078 10.855 9
0.068 -0.088 10.855 1
0.029 -0.088 10.816 10
0.039 -0.078 10.777 10
0.039 -0.078 10.797 9
0.039 -0.039 10.797 2
0.068 -0.088 10.826 9
0.098 -0.088 10.826 10
0.127 -0.078 10.797 11
0.186 -0.078 10.777 10
0.225 -0.078 10.787 10
0.235 -0.049 10.767 9
0.205 0.029 10.767 11
0.166 0.029 10.748 10
0.166 0.078 10.748 1
0.156 0.078 10.738 9
0.127 0.078 10.728 10
0.127 0.019 10.728 1
0.147 -0.019 10.689 9
0.127 -0.039 10.64 10
0.137 -0.039 10.659 11
0.137 -0.039 10.64 9
0.127 -0.078 10.64 1
0.117 -0.127 10.659 10
0.107 -0.117 10.679 10
0.088 -0.088 10.659 10
0.156 -0.068 10.699 11
0.156 -0.068 10.728 8
0.186 -0.049 10.728 2
0.196 -0.078 10.728 9
0.196 -0.058 10.738 11
0.186 -0.058 10.718 9
0.147 -0.049 10.738 11
0.117 0.0 10.748 9
0.088 0.0 10.699 10
0.088 0.019 10.699 2
0.049 0.009 10.659 9
0.019 -0.009 10.728 10
0.039 -0.029 10.699 11
0.058 -0.078 10.777 9
0.078 -0.127 10.797 11
0.117 -0.127 10.757 9
0.117 -0.156 10.757 2
0.166 -0.176 10.757 8
0.196 -0.127 10.738 11
0.225 -0.127 10.738 9
0.225 -0.058 10.738 1
0.254 -0.049 10.728 10
0.254 -0.009 10.748 11
0.205 -0.009 10.728 9
0.205 0.039 10.728 1
0.205 0.049 10.748 9
0.166 0.029 10.787 10
0.156 0.009 10.787 11
0.137 0.009 10.757 9
0.117 -0.049 10.728 11
0.078 -0.068 10.699 10
0.058 -0.068 10.699 10
0.058 -0.078 10.689 10
0.068 -0.078 10.65 11
0.107 -0.088 10.659 9
0.117 -0.078 10.6 10
0.117 -0.078 10.757 10
0.127 -0.078 10.679 1
0.156 -0.068 10.708 9
0.127 -0.078 10.738 11
0.127 -0.078 10.728 9
0.127 -0.068 10.728 1
0.147 -0.039 10.738 10
0.147 -0.039 10.748 10
0.137 -0.029 10.748 1
0.127 0.009 10.806 9
0.166 -0.009 10.797 12
0.215 -0.039 10.757 8
0.225 -0.058 10.748 11
0.225 -0.058 10.689 9
0.235 -0.068 10.689 1
0.225 -0.039 10.61 9
0.264 -0.039 10.542 11
0.264 -0.039 10.473 9
0.254 -0.058 10.473 1
0.215 -0.019 10.444 10
0.215 -0.019 10.414 9
0.196 -0.009 10.414 3
0.176 -0.019 10.522 8
0.019 -0.019 10.669 10
0.147 -0.039 10.669 1
0.166 -0.078 10.699 9
0.156 -0.088 10.679 11
0.0 -0.088 10.718 9
0.127 -0.078 10.718 1
0.068 -0.039 10.748 10
0.039 0.019 10.738 10
0.039 0.019 10.728 9
0.058 0.049 10.728 2
0.078 0.068 10.679 9
0.107 0.058 10.689 12
0.117 0.019 10.689 8
0.137 -0.039 10.679 11
0.117 -0.039 10.669 9
0.117 -0.078 10.669 1
0.107 -0.078 10.699 9
0.107 -0.068 10.699 2
0.107 -0.068 10.679 8
0.107 -0.019 10.679 2
0.098 -0.019 10.689 9
0.107 0.019 10.718 10
0.166 0.0 10.787 10
0.196 0.0 10.836 10
0.186 -0.009 10.846 10
0.147 -0.039 10.846 10
0.107 -0.039 10.816 10
0.127 -0.078 10.787 10
0.127 -0.078 10.679 10
0.127 -0.098 10.65 10
0.147 -0.107 10.65 10
0.186 -0.068 10.581 10
0.156 -0.029 10.522 10
0.156 -0.009 10.522 10
0.117 -0.019 10.542 11
0.107 -0.049 10.6 0
0.147 -0.068 10.62 19
0.205 -0.049 10.708 10
0.245 -0.078 10.728 10
0.245 -0.039 10.689 10
0.196 -0.039 10.728 10
0.117 -0.009 10.728 11
0.068 -0.009 10.767 1
0.029 -0.009 10.748 18
0.068 -0.019 10.728 10
0.107 0.0 10.718 10
0.147 0.029 10.689 10
0.186 0.039 10.689 11
0.176 0.039 10.689 9
0.186 0.058 10.699 10
0.186 0.029 10.679 10
0.186 -0.039 10.669 10
0.186 -0.049 10.718 10
0.127 -0.088 10.757 10
0.117 -0.088 10.797 10
0.117 -0.137 10.806 10
0.098 -0.156 10.836 10
0.088 -0.117 10.787 10
0.098 -0.088 10.718 10
0.127 -0.029 10.65 10
0.147 0.029 10.64 10
0.137 0.058 10.64 11
0.137 0.019 10.659 4
0.127 -0.019 10.718 9
0.147 -0.049 10.65 11
0.176 -0.049 10.64 9
0.176 -0.068 10.64 1
0.215 -0.068 10.61 10
0.186 -0.058 10.708 10
0.147 -0.039 10.767 10
0.049 -0.029 10.806 10
0.049 -0.029 10.963 9
0.009 -0.039 10.875 2
0.078 -0.029 10.797 9
0.137 -0.029 10.728 10
0.137 -0.019 10.728 1
0.215 0.0 10.63 10
0.284 -0.009 10.63 9
0.294 -0.009 10.65 10
0.294 0.009 10.65 1
0.225 0.058 10.689 10
0.215 0.058 10.699 9
0.215 0.078 10.699 2
0.215 0.029 10.738 9
0.215 -0.019 10.757 10
0.186 -0.058 10.767 10
0.147 -0.117 10.777 10
0.117 -0.127 10.865 11
0.098 -0.127 10.944 9
0.098 -0.156 10.944 1
0.058 -0.147 10.934 10
0.078 -0.107 10.865 9
0.068 -0.039 10.826 11
0.117 -0.039 10.748 9
0.117 -0.009 10.748 1
0.235 -0.019 10.699 10
0.235 0.0 10.689 10
0.205 -0.049 10.6 10
0.166 -0.058 10.512 12
0.147 -0.068 10.414 9
0.127 -0.039 10.404 10
0.117 -0.078 10.395 10
0.127 -0.058 10.473 10
0.127 -0.058 10.551 10
0.117 -0.088 10.63 10
0.068 -0.088 10.65 10
0.098 -0.039 10.659 11
0.137 -0.019 10.699 9
0.196 0.019 10.787 11
0.294 0.039 10.826 10
0.264 0.039 10.767 9
0.264 0.049 10.767 1
0.235 0.058 10.738 13
0.196 0.058 10.708 6
0.196 0.019 10.708 2
0.176 -0.058 10.689 9
0.176 -0.058 10.679 9
0.156 -0.088 10.679 2
0.127 -0.088 10.63 9
0.098 -0.088 10.64 11
0.098 -0.078 10.65 9
0.098 -0.058 10.699 11
0.127 -0.019 10.748 10
0.176 -0.019 10.806 9
0.156 -0.039 10.787 15
0.137 -0.009 10.865 6
0.166 -0.019 10.904 11
0.205 -0.068 10.846 9
0.225 -0.068 10.757 10
0.225 -0.068 10.708 10
0.196 -0.049 10.708 1
0.166 -0.068 10.699 10
0.166 -0.019 10.65 10
0.166 -0.019 10.62 9
0.196 -0.029 10.62 1
0.127 -0.049 10.561 10
0.107 -0.058 10.551 11
0.137 -0.078 10.571 9
0.137 -0.078 10.591 9
0.147 -0.107 10.591 2
0.186 -0.058 10.502 9
0.245 -0.049 10.463 11
0.274 -0.049 10.463 9
0.274 -0.029 10.463 1
0.264 -0.009 10.551 10
0.264 -0.009 10.708 9
0.225 -0.039 10.718 1
0.186 -0.029 10.748 9
0.186 -0.039 10.855 11
0.156 0.009 10.816 10
0.186 0.009 10.904 10
0.225 -0.019 10.855 10
0.176 -0.049 10.885 11
0.127 -0.049 10.875 9
0.127 -0.117 10.875 1
0.127 -0.117 10.836 9
0.088 -0.166 10.836 1
0.098 -0.147 10.875 9
0.137 -0.107 10.797 11
0.294 -0.107 10.708 9
0.166 -0.068 10.708 1
0.215 0.019 10.659 10
0.205 0.068 10.65 10
0.205 0.078 10.65 10
0.215 0.078 10.699 10
0.196 0.009 10.767 11
0.117 -0.147 10.826 9
0.117 -0.019 10.826 1
0.049 -0.078 10.816 9
0.049 -0.098 10.826 11
0.088 -0.254 10.767 9
0.088 -0.166 10.767 1
0.137 -0.137 10.699 10
0.156 -0.117 10.659 10
0.147 -0.117 10.61 10
0.147 -0.078 10.61 1
0.166 -0.049 10.561 9
0.196 0.009 10.473 10
0.196 0.009 10.404 10
0.215 0.058 10.404 1
0.245 0.049 10.395 9
0.323 0.0 10.453 11
0.166 0.0 10.551 9
0.304 -0.058 10.551 1
0.225 -0.049 10.561 10
0.215 -0.009 10.542 10
0.215 -0.009 10.591 9
0.166 0.049 10.591 2
0.127 0.098 10.64 9
0.078 0.068 10.679 10
0.058 0.068 10.699 10
0.058 0.0 10.699 1
0.068 -0.068 10.748 9
0.068 -0.078 10.757 11
0.068 -0.078 10.689 9
0.107 -0.078 10.689 1
0.186 -0.078 10.659 10
0.186 -0.049 10.659 10
0.186 -0.049 10.65 9
0.196 -0.029 10.65 1
0.186 0.009 10.63 10
0.166 0.058 10.62 10
0.166 0.058 10.777 10
0.176 0.039 10.679 1
0.156 0.009 10.669 9
0.107 0.019 10.738 10
0.049 -0.009 10.797 11
0.009 -0.009 10.846 9
0.009 -0.039 10.846 1
-0.068 -0.098 10.924 10
-0.019 -0.088 10.895 10
-0.019 -0.107 10.895 11
0.019 -0.068 10.855 9
0.019 -0.068 10.699 10
0.058 -0.009 10.816 1
0.166 -0.009 10.787 9
0.274 -0.039 10.728 10
0.294 -0.029 10.64 11
0.274 -0.029 10.551 9
0.294 0.0 10.493 11
0.323 0.0 10.483 10
0.264 -0.019 10.63 10
0.245 -0.029 10.797 10
0.245 -0.029 10.954 10
0.215 -0.029 10.846 1
0.156 -0.029 10.904 9
0.117 -0.019 10.846 11
0.117 -0.019 10.689 9
0.137 -0.029 10.826 1
0.107 -0.049 10.855 9
0.068 -0.058 10.846 11
0.068 -0.058 10.836 10
0.068 -0.107 10.836 1
0.078 -0.058 10.787 9
0.107 -0.049 10.669 10
0.107 -0.049 10.62 10
0.147 -0.078 10.62 1
0.166 -0.058 10.62 9
0.176 -0.058 10.591 11
0.176 -0.058 10.62 9
0.156 -0.029 10.62 1
0.147 0.029 10.659 10
0.156 0.029 10.669 9
0.156 0.058 10.669 2
0.147 0.068 10.708 9
0.117 0.049 10.767 10
0.117 0.009 10.836 10
0.098 -0.068 10.806 10
0.078 -0.107 10.846 11
0.068 -0.107 10.797 9
0.068 -0.058 10.797 1
0.088 -0.039 10.787 10
0.127 -0.088 10.757 10
0.186 -0.088 10.777 9
0.245 -0.058 10.708 11
0.264 -0.058 10.61 10
0.274 -0.058 10.512 10
0.274 -0.009 10.512 1
0.225 0.029 10.473 9
0.304 0.039 10.483 11
0.343 0.039 10.551 9
0.343 0.009 10.551 1
0.323 0.039 10.561 9
0.176 0.049 10.61 11
0.019 0.049 10.61 9
0.068 0.058 10.61 1
0.009 0.019 10.659 10
-0.029 -0.009 10.708 10
0.039 -0.009 10.728 10
0.039 -0.078 10.728 1
0.068 -0.186 10.748 9
0.107 -0.186 10.757 10
0.107 -0.166 10.757 1
0.117 -0.147 10.777 9
0.117 -0.098 10.767 11
0.078 -0.058 10.708 9
0.078 -0.049 10.62 11
0.117 0.107 10.6 9
0.117 0.009 10.6 2
0.147 0.029 10.581 9
0.215 0.029 10.571 10
0.264 0.029 10.65 10
0.294 0.0 10.738 10
0.245 0.0 10.777 11
0.166 0.0 10.777 9
0.166 0.019 10.777 1
0.107 -0.009 10.797 9
0.039 -0.039 10.846 11
0.039 -0.049 10.846 10
0.078 -0.068 10.806 10
0.107 -0.088 10.855 10
0.264 -0.088 10.757 9
0.166 -0.098 10.757 2
0.215 -0.117 10.738 9
0.205 -0.107 10.777 11
0.176 -0.107 10.708 9
0.147 -0.117 10.6 10
0.166 -0.088 10.522 11
0.156 -0.088 10.551 9
0.156 -0.039 10.551 1
0.186 -0.029 10.679 10
0.235 -0.049 10.708 10
0.215 -0.049 10.757 10
0.215 -0.009 10.757 1
0.176 0.029 10.757 9
0.166 0.019 10.787 11
0.127 -0.137 10.777 9
0.127 -0.009 10.777 1
0.156 -0.029 10.777 9
0.137 -0.058 10.748 11
0.078 -0.058 10.777 9
0.039 -0.009 10.816 11
0.039 -0.029 10.806 10
0.039 -0.029 10.777 9
0.009 -0.029 10.777 2
0.009 -0.029 10.767 9
0.039 -0.049 10.699 10
0.039 -0.049 10.63 10
0.098 -0.039 10.63 1
0.156 -0.009 10.63 9
0.215 -0.068 10.64 11
0.215 -0.068 10.679 9
0.245 -0.019 10.679 1
0.284 0.0 10.689 10
0.294 -0.019 10.767 10
0.294 -0.019 10.738 9
0.225 0.0 10.738 2
0.127 0.009 10.757 9
0.039 0.019 10.748 10
0.039 0.019 10.708 10
0.039 0.029 10.708 1
0.068 -0.019 10.689 9
0.098 -0.039 10.699 11
0.117 -0.088 10.699 10
0.117 -0.107 10.61 10
0.098 -0.098 10.6 10
0.098 -0.127 10.591 10
0.107 -0.058 10.502 10
0.147 -0.019 10.502 11
0.215 -0.019 10.551 9
0.254 -0.009 10.669 11
0.254 -0.009 10.757 9
0.254 0.009 10.757 1
0.196 0.009 10.738 9
0.196 0.009 10.777 10
0.147 0.009 10.777 1
0.117 0.009 10.806 10
0.078 0.019 10.797 10
0.098 -0.009 10.797 11
0.117 0.0 10.836 9
0.098 -0.019 10.767 11
0.088 -0.019 10.767 9
0.088 -0.098 10.708 11
0.156 -0.098 10.65 9
0.156 -0.127 10.65 1
0.215 -0.186 10.659 10
0.215 -0.186 10.571 9
0.225 -0.107 10.571 2
0.245 -0.058 10.542 9
0.245 -0.058 10.571 9
0.225 0.019 10.571 2
0.225 0.029 10.64 10
0.156 0.029 10.669 9
0.156 0.039 10.669 1
0.078 0.049 10.708 9
-0.019 0.039 10.708 11
0.0 0.039 10.728 9
0.0 0.009 10.728 1
0.019 0.0 10.728 10
0.039 -0.049 10.738 10
0.039 -0.049 10.767 10
0.039 -0.058 10.767 1
0.049 -0.068 10.738 9
0.049 -0.068 10.748 11
0.049 -0.058 10.748 1
0.068 -0.058 10.699 9
0.117 -0.068 10.63 9
0.205 -0.049 10.669 11
0.225 -0.068 10.679 9
0.225 -0.068 10.65 10
0.225 -0.058 10.65 1
0.235 -0.049 10.659 10
0.274 -0.049 10.708 10
0.274 -0.078 10.777 10
0.274 -0.078 10.836 9
0.254 -0.068 10.836 2
0.205 -0.068 10.885 10
0.049 -0.068 10.836 9
0.117 -0.039 10.836 1
0.117 -0.019 10.826 10
0.117 0.137 10.797 9
0.117 0.068 10.797 1
0.176 0.098 10.708 10
0.176 0.098 10.718 9
0.176 0.068 10.689 11
0.088 0.019 10.689 10
0.078 -0.058 10.571 10
0.078 -0.107 10.512 11
0.078 -0.068 10.532 10
0.068 -0.068 10.591 9
0.068 -0.107 10.591 1
0.098 -0.147 10.689 10
0.088 -0.186 10.757 12
0.078 -0.186 10.826 8
0.029 -0.029 10.846 10
0.029 -0.156 10.846 1
0.039 -0.068 10.865 9
0.039 -0.068 10.875 10
0.068 0.009 10.875 1
0.107 0.088 10.816 15
0.166 0.137 10.777 10
0.176 0.166 10.757 10
0.215 0.156 10.757 10
0.196 0.058 10.689 10
0.196 -0.049 10.669 10
0.186 -0.068 10.61 10
0.156 -0.107 10.522 10
0.088 -0.117 10.561 10
0.107 -0.147 10.659 10
0.117 -0.186 10.738 10
0.088 -0.225 10.855 10
0.088 -0.186 10.904 10
0.068 -0.156 10.875 10
0.049 -0.127 10.865 10
0.078 -0.058 10.816 10
0.117 0.009 10.826 10
0.127 0.039 10.777 10
0.147 0.078 10.718 11
0.127 0.088 10.689 6
0.098 0.019 10.669 13
0.078 -0.049 10.61 12
0.117 -0.058 10.522 8
0.156 -0.058 10.532 10
0.166 -0.117 10.551 10
0.127 -0.127 10.62 10
0.137 -0.156 10.64 10
0.117 -0.156 10.718 10
0.107 -0.176 10.689 10
0.049 -0.147 10.699 10
0.088 -0.098 10.63 10
0.117 -0.029 10.65 12
0.137 0.039 10.679 8
0.196 0.127 10.669 10
0.215 0.156 10.65 10
0.196 0.098 10.65 10
0.156 0.039 10.659 10
0.156 -0.058 10.561 10
0.147 -0.166 10.463 11
0.127 -0.196 10.502 7
0.107 -0.186 10.62 10
0.058 -0.205 10.718 11
0.0 -0.205 10.806 9
0.0 -0.186 10.806 1
-0.049 -0.176 10.846 10
-0.029 -0.186 10.885 10
0.039 -0.186 10.895 10
0.039 -0.176 10.895 1
0.058 -0.127 10.855 9
0.058 -0.127 10.806 10
0.117 -0.039 10.806 1
0.127 0.029 10.738 10
0.137 0.088 10.689 9
0.137 0.088 10.532 10
0.107 0.127 10.64 1
0.107 0.078 10.61 9
0.156 0.078 10.581 10
0.156 0.019 10.581 1
0.176 -0.019 10.6 10
0.205 -0.088 10.679 10
0.205 -0.127 10.718 10
0.156 -0.137 10.797 10
0.117 -0.176 10.846 10
0.078 -0.205 10.826 11
-0.039 -0.205 10.865 9
-0.039 -0.186 10.865 1
-0.049 -0.166 10.865 9
-0.049 -0.166 10.708 10
0.029 -0.176 10.806 2
0.078 -0.137 10.718 8
0.078 -0.117 10.708 11
0.078 -0.117 10.679 9
0.117 -0.058 10.679 1
0.196 -0.029 10.6 10
0.215 0.019 10.512 10
0.225 0.039 10.483 11
0.235 0.049 10.522 9
0.196 0.019 10.61 11
0.176 -0.019 10.699 9
0.176 -0.078 10.816 11
0.176 -0.078 10.885 9
0.156 -0.137 10.885 1
0.117 -0.156 10.875 10
0.058 -0.196 10.846 10
0.058 -0.196 10.875 9
0.019 -0.215 10.875 2
0.039 -0.176 10.846 9
0.078 -0.156 10.826 11
0.078 -0.156 10.777 9
0.098 -0.127 10.777 1
0.137 -0.058 10.728 9
0.107 -0.019 10.699 11
0.117 -0.019 10.728 9
0.156 0.009 10.659 11
0.137 0.009 10.62 10
0.156 0.009 10.669 9
0.156 0.019 10.669 2
0.176 0.019 10.65 9
0.176 -0.009 10.718 10
0.166 -0.009 10.718 10
0.166 -0.078 10.718 1
0.137 -0.156 10.748 9
0.098 -0.186 10.797 11
0.078 -0.186 10.855 9
0.098 -0.127 10.826 11
0.098 -0.098 10.797 10
0.107 -0.098 10.787 9
0.107 -0.068 10.787 2
0.068 -0.078 10.748 9
0.058 -0.078 10.738 10
0.058 -0.078 10.64 10
0.088 -0.058 10.64 1
0.147 -0.049 10.62 9
0.235 -0.019 10.6 11
0.235 -0.019 10.561 9
0.284 0.0 10.561 1
0.313 -0.009 10.63 9
0.254 -0.029 10.689 11
0.254 -0.029 10.669 9
0.215 -0.078 10.669 2
0.147 -0.049 10.718 9
0.049 -0.029 10.718 10
0.049 -0.029 10.738 10
0.0 -0.019 10.738 1
-0.049 -0.049 10.738 9
0.009 -0.058 10.679 11
0.009 -0.058 10.669 9
0.058 -0.039 10.669 1
0.068 -0.078 10.62 9
0.098 -0.078 10.64 11
0.098 -0.078 10.659 9
0.127 -0.078 10.659 1
0.137 -0.019 10.571 10
0.147 0.009 10.532 10
0.147 0.019 10.542 11
0.215 0.0 10.551 9
0.264 0.039 10.63 11
0.264 0.039 10.728 9
0.254 0.058 10.728 1
0.235 0.068 10.718 9
0.186 0.078 10.708 11
0.127 0.078 10.718 9
0.127 0.019 10.718 1
0.078 0.029 10.767 10
0.019 0.019 10.748 10
0.019 -0.009 10.748 11
0.058 0.0 10.728 9
0.068 -0.019 10.689 11
0.068 -0.019 10.679 9
0.049 -0.078 10.679 1
0.039 -0.098 10.64 9
0.039 -0.088 10.561 11
0.068 -0.088 10.463 9
0.068 -0.058 10.463 1
0.117 -0.019 10.473 10
0.137 -0.009 10.542 10
0.205 0.147 10.62 10
0.205 0.029 10.62 1
0.205 0.019 10.699 9
0.176 0.019 10.738 11
0.019 0.019 10.826 9
0.107 -0.029 10.826 1
0.068 -0.058 10.836 9
0.078 -0.107 10.885 11
0.078 -0.107 10.954 9
0.107 -0.147 10.954 1
0.156 -0.156 10.963 10
0.127 -0.137 10.895 10
0.127 -0.137 10.836 9
0.147 -0.088 10.836 2
0.137 -0.058 10.718 9
0.088 -0.049 10.689 11
0.049 -0.049 10.718 9
0.049 -0.039 10.718 1
0.078 -0.019 10.591 10
0.078 -0.019 10.483 9
0.107 0.049 10.483 1
0.196 0.098 10.414 10
0.254 0.107 10.502 10
0.254 0.107 10.699 9
0.294 0.078 10.699 2
0.254 0.019 10.836 9
0.254 0.019 10.875 9
0.176 0.019 10.875 2
0.107 -0.029 10.846 9
0.058 -0.039 10.826 10
0.058 -0.039 10.816 10
0.058 -0.068 10.816 1
0.078 -0.068 10.836 10
0.058 -0.058 10.767 10
0.039 -0.058 10.748 9
0.039 -0.088 10.748 1
0.029 -0.049 10.718 10
-0.019 -0.068 10.718 10
-0.019 -0.068 10.669 10
-0.009 -0.088 10.669 1
-0.019 -0.058 10.679 9
0.039 -0.058 10.64 11
0.039 -0.058 10.659 9
0.098 -0.088 10.659 1
0.176 -0.058 10.689 10
0.176 -0.058 10.718 9
0.196 -0.049 10.718 1
0.156 -0.058 10.689 10
0.088 -0.049 10.699 10
0.068 0.0 10.738 10
0.058 0.019 10.65 10
0.049 0.009 10.591 10
0.088 0.068 10.62 10
0.098 0.029 10.591 11
0.137 -0.058 10.64 9
0.137 -0.058 10.62 10
0.107 -0.107 10.62 1
0.088 -0.088 10.62 10
0.137 -0.088 10.581 10
0.137 -0.088 10.522 9
0.137 -0.058 10.522 2
0.205 -0.009 10.542 16
0.235 0.009 10.61 10
0.196 0.009 10.64 10
0.137 0.0 10.689 10
0.078 0.019 10.679 10
0.058 0.058 10.699 10
0.098 0.078 10.708 10
0.137 0.058 10.738 10
0.117 0.009 10.806 10
0.098 -0.049 10.738 10
0.088 -0.029 10.718 10
0.049 -0.049 10.679 10
0.0 -0.107 10.679 10
-0.029 -0.107 10.738 10
0.0 -0.137 10.738 10
0.058 -0.147 10.757 10
0.078 -0.156 10.738 10
0.029 -0.098 10.816 10
0.068 -0.107 10.806 10
0.058 -0.098 10.846 10
0.078 -0.088 10.855 10
0.127 -0.049 10.885 6
0.176 -0.019 10.836 14
0.215 0.009 10.797 10
0.235 0.058 10.787 10
0.205 0.039 10.757 10
0.176 -0.009 10.699 10
0.147 -0.019 10.61 10
0.147 -0.029 10.64 10
0.137 -0.039 10.561 10
0.127 -0.029 10.493 10
0.117 -0.049 10.6 10
0.088 -0.107 10.718 11
0.088 -0.156 10.826 9
0.058 -0.225 10.836 10
0.049 -0.176 10.865 10
0.049 -0.088 10.855 10
0.078 -0.049 10.836 10
0.088 -0.019 10.787 10
0.127 0.0 10.728 10
0.137 0.078 10.699 10
0.147 0.068 10.659 11
0.137 0.049 10.6 7
0.127 0.019 10.532 9
0.147 0.0 10.493 11
0.137 -0.019 10.473 10
0.147 -0.058 10.581 10
0.147 -0.058 10.689 9
0.107 -0.137 10.689 1
0.078 -0.176 10.797 10
0.068 -0.186 10.767 10
0.009 -0.176 10.757 10
0.009 -0.176 10.816 10
-0.049 -0.147 10.816 1
-0.049 -0.068 10.806 9
0.0 -0.058 10.826 11
0.078 -0.029 10.757 10
0.176 0.127 10.728 9
0.176 0.019 10.728 2
0.166 0.049 10.669 9
0.176 0.107 10.591 10
0.137 0.088 10.561 10
0.137 0.088 10.473 10
0.117 0.058 10.473 1
0.107 0.019 10.444 10
0.117 -0.137 10.483 9
0.117 -0.009 10.483 1
0.078 -0.009 10.571 10
0.098 -0.039 10.669 11
0.068 -0.137 10.757 9
0.068 -0.137 10.797 9
0.068 -0.156 10.797 2
0.019 -0.166 10.816 9
0.009 -0.147 10.797 10
0.039 -0.117 10.767 10
0.078 -0.068 10.738 10
0.137 -0.009 10.777 10
0.137 -0.009 10.718 10
0.137 0.068 10.718 1
0.156 0.117 10.679 9
0.147 0.117 10.65 11
0.147 0.107 10.6 10
0.117 0.058 10.571 10
0.107 0.009 10.6 10
0.117 -0.009 10.542 10
0.088 -0.039 10.591 11
0.078 -0.107 10.738 10
0.078 -0.205 10.855 9
0.078 -0.205 10.865 12
0.078 -0.205 10.826 8
0.078 -0.196 10.826 1
0.058 -0.156 10.806 10
0.068 -0.107 10.777 10
0.098 -0.039 10.787 10
0.117 0.0 10.748 10
0.147 0.068 10.728 10
0.176 0.078 10.689 10
0.176 0.078 10.64 10
0.137 0.078 10.64 1
0.137 0.049 10.581 9
0.176 0.039 10.61 12
0.254 -0.019 10.62 8
0.294 -0.068 10.708 11
0.274 -0.107 10.797 10
0.225 -0.098 10.787 10
0.107 -0.107 10.797 10
0.049 -0.137 10.806 11
0.049 -0.137 10.816 9
-0.019 -0.137 10.816 1
-0.009 -0.117 10.787 9
-0.009 -0.117 10.757 11
0.039 -0.117 10.689 9
0.039 -0.088 10.689 1
0.078 -0.049 10.679 10
0.117 -0.039 10.581 10
0.274 -0.039 10.542 9
0.176 0.0 10.542 2
0.186 0.039 10.522 9
0.225 0.039 10.434 10
0.225 0.068 10.434 1
0.215 0.088 10.463 9
0.215 0.088 10.522 10
0.235 0.068 10.522 1
0.215 -0.029 10.659 9
0.235 -0.029 10.806 10
0.235 -0.068 10.806 1
0.166 -0.107 10.826 10
0.009 -0.107 10.836 9
0.137 -0.137 10.836 1
0.058 -0.137 10.806 9
0.058 -0.107 10.806 2
0.029 -0.117 10.777 9
0.049 -0.098 10.748 11
0.009 -0.068 10.738 9
0.029 -0.019 10.689 11
0.068 -0.029 10.728 9
0.098 -0.019 10.728 11
0.254 -0.019 10.659 9
0.156 -0.068 10.659 1
0.196 -0.049 10.6 10
0.196 -0.009 10.591 10
0.205 0.039 10.571 10
0.205 0.068 10.63 11
0.205 0.039 10.699 9
0.196 -0.009 10.757 10
0.147 -0.058 10.787 10
0.107 -0.088 10.787 11
0.058 -0.117 10.787 9
0.029 -0.274 10.816 10
0.029 -0.166 10.816 2
0.019 -0.235 10.777 9
0.019 -0.235 10.787 9
0.019 -0.205 10.787 2
0.039 -0.156 10.767 9
0.058 -0.088 10.757 10
0.068 -0.039 10.689 10
0.127 -0.029 10.679 10
0.166 0.009 10.591 11
0.186 0.009 10.581 9
0.186 0.078 10.581 1
0.205 0.088 10.561 9
0.215 0.078 10.561 11
0.215 0.078 10.65 9
0.205 0.068 10.65 1
0.215 0.029 10.708 10
0.186 -0.019 10.738 10
0.186 -0.019 10.699 9
0.147 -0.058 10.699 2
0.117 -0.078 10.699 9
0.049 -0.127 10.738 10
0.049 -0.127 10.767 10
0.009 -0.137 10.767 1
0.039 -0.137 10.757 9
0.019 -0.156 10.777 11
0.068 -0.166 10.689 10
0.098 -0.205 10.64 10
0.137 -0.156 10.6 11
0.215 -0.107 10.6 9
0.215 -0.107 10.64 10
0.254 -0.068 10.64 1
0.264 -0.029 10.699 9
0.245 0.009 10.767 11
0.245 0.009 10.806 9
0.225 0.0 10.806 1
0.196 -0.009 10.797 9
0.166 -0.039 10.777 11
0.166 -0.039 10.787 9
0.186 -0.039 10.787 2
0.176 -0.029 10.767 9
0.137 -0.039 10.748 11
0.137 -0.029 10.659 9
0.137 -0.029 10.63 10
0.147 -0.078 10.61 10
0.147 -0.078 10.6 10
0.147 -0.137 10.6 1
0.137 -0.176 10.591 9
0.127 -0.166 10.532 11
0.117 -0.009 10.483 9
0.117 -0.117 10.483 1
0.166 -0.078 10.522 10
0.225 -0.098 10.571 10
0.225 -0.098 10.689 9
0.225 -0.068 10.689 2
0.235 -0.039 10.777 9
0.205 -0.029 10.787 11
0.186 0.127 10.767 9
0.186 0.009 10.767 1
0.156 0.029 10.767 9
0.156 0.009 10.806 11
0.176 0.0 10.777 9
0.176 -0.019 10.826 11
0.196 -0.049 10.797 10
0.127 -0.107 10.816 20
0.078 -0.127 10.797 11
0.068 -0.127 10.718 9
0.068 -0.107 10.718 1
0.098 -0.176 10.728 9
0.147 -0.176 10.767 11
0.196 -0.176 10.816 9
0.215 -0.156 10.836 11
0.215 -0.107 10.836 10
0.215 -0.107 10.806 9
0.166 -0.039 10.806 2
0.117 -0.029 10.777 9
0.058 -0.009 10.777 10
0.068 -0.019 10.738 11
0.117 -0.049 10.738 9
0.196 -0.029 10.738 11
0.225 -0.068 10.708 10
0.225 -0.088 10.659 9
0.225 -0.107 10.591 11
0.225 -0.107 10.551 9
0.205 -0.147 10.551 1
0.166 -0.166 10.551 10
0.147 -0.107 10.561 10
0.137 -0.127 10.561 10
0.156 -0.098 10.561 11
0.127 -0.117 10.581 10
0.137 -0.088 10.591 11
0.137 -0.088 10.62 9
0.137 -0.019 10.591 9
0.147 0.029 10.61 11
0.196 0.049 10.591 10
0.196 0.049 10.62 10
0.245 0.049 10.62 1
0.245 0.058 10.64 9
0.245 0.058 10.63 10
0.205 0.029 10.63 1
0.156 0.009 10.669 10
0.107 -0.078 10.62 10
0.107 -0.107 10.591 12
0.137 -0.107 10.591 8
0.137 -0.117 10.591 1
0.127 -0.098 10.551 9
0.284 -0.098 10.542 12
0.166 -0.068 10.542 1
0.215 -0.068 10.63 8
0.205 -0.117 10.757 9
0.186 -0.186 10.777 10
0.029 -0.186 10.865 10
0.137 -0.127 10.865 1
0.088 -0.107 10.797 9
0.127 -0.107 10.757 11
0.284 -0.107 10.718 9
0.156 -0.098 10.718 1
0.166 0.0 10.767 10
0.196 0.029 10.777 10
0.196 0.058 10.777 10
0.205 0.049 10.728 10
0.205 0.009 10.699 10
0.205 0.009 10.542 10
0.205 -0.049 10.63 1
0.176 -0.058 10.591 9
0.166 -0.117 10.581 11
0.186 -0.127 10.551 10
0.245 -0.127 10.571 9
0.225 -0.127 10.679 11
0.225 -0.127 10.787 9
0.225 -0.147 10.787 2
0.176 -0.147 10.836 9
0.088 -0.147 10.816 10
0.088 -0.137 10.816 1
0.088 -0.078 10.806 9
0.098 -0.068 10.797 11
0.098 -0.068 10.816 9
0.147 -0.019 10.816 1
0.235 0.009 10.787 9
0.274 0.009 10.748 11
0.274 0.009 10.699 9
0.245 0.019 10.699 1
0.284 -0.029 10.679 10
0.304 -0.058 10.689 10
0.304 -0.058 10.532 9
0.323 -0.098 10.61 2
0.323 -0.117 10.64 9
0.254 -0.107 10.64 10
0.254 -0.107 10.65 10
0.215 -0.156 10.65 1
0.196 -0.205 10.679 9
0.186 -0.186 10.797 11
0.176 -0.215 10.885 10
0.176 -0.205 10.904 10
0.176 -0.166 10.895 10
0.186 -0.147 10.904 10
0.264 -0.117 10.865 11
0.245 -0.058 10.826 9
0.264 -0.019 10.787 10
0.284 0.039 10.728 11
0.245 0.039 10.669 9
0.245 0.019 10.669 1
0.205 -0.058 10.63 10
0.147 -0.049 10.591 10
0.166 -0.049 10.65 9
0.166 -0.058 10.65 2
0.166 -0.147 10.728 9
0.186 -0.176 10.846 10
0.166 -0.176 10.885 10
0.166 -0.235 10.885 1
0.147 -0.245 10.885 9
0.304 -0.245 10.846 10
0.156 -0.225 10.846 1
0.147 -0.196 10.846 9
0.147 -0.147 10.846 11
0.147 -0.147 10.777 9
0.147 -0.107 10.777 1
0.117 -0.068 10.738 10
0.137 -0.029 10.679 10
0.176 -0.019 10.571 10
0.254 -0.019 10.561 10
0.343 0.137 10.532 10
0.343 0.009 10.532 1
0.362 0.058 10.522 11
0.343 0.068 10.512 8
0.343 0.058 10.463 11
0.323 0.058 10.581 9
0.323 0.009 10.581 1
0.284 -0.058 10.679 10
0.245 -0.147 10.728 9
0.205 -0.196 10.738 11
0.127 -0.205 10.748 11
0.019 -0.196 10.767 9
0.009 -0.196 10.748 10
0.019 -0.166 10.767 13
0.088 -0.127 10.767 7
0.137 -0.068 10.728 11
0.156 -0.039 10.64 10
0.186 0.0 10.571 10
0.225 0.009 10.561 10
0.225 0.009 10.502 9
0.254 0.019 10.502 2
0.304 0.019 10.414 9
0.372 0.009 10.414 10
0.411 0.029 10.522 11
0.421 0.0 10.62 11
0.392 -0.088 10.748 9
0.343 -0.156 10.777 9
0.205 -0.186 10.797 11
0.049 -0.186 10.865 9
0.107 -0.196 10.865 2
0.078 -0.235 10.865 14
0.039 -0.254 10.855 5
0.019 -0.235 10.855 11
0.049 -0.205 10.738 9
0.117 -0.215 10.708 11
0.127 -0.186 10.708 9
0.176 -0.137 10.708 11
0.264 -0.107 10.63 10
0.264 -0.107 10.483 9
0.333 -0.029 10.483 1
0.372 0.0 10.483 10
0.372 0.0 10.561 9
0.431 0.0 10.561 2
0.402 -0.039 10.689 9
0.362 -0.088 10.767 10
0.284 -0.088 10.816 11
0.186 -0.078 10.836 10
0.147 -0.088 10.855 10
0.127 -0.196 10.934 23
0.147 -0.205 10.904 10
0.166 -0.156 10.904 10
0.147 -0.137 10.855 10
0.117 -0.156 10.738 10
0.127 -0.147 10.708 10
0.186 -0.137 10.659 10
0.274 -0.098 10.591 10
0.304 -0.068 10.6 10
0.353 -0.058 10.659 10
0.392 -0.009 10.699 10
0.372 -0.029 10.718 10
0.294 -0.019 10.738 10
0.225 -0.049 10.748 10
0.156 -0.078 10.777 11
0.117 -0.137 10.738 9
0.127 -0.205 10.738 10
0.196 -0.245 10.718 10
0.196 -0.196 10.718 10
0.176 -0.176 10.679 10
0.137 -0.147 10.591 12
0.137 -0.147 10.571 7
0.098 -0.127 10.571 1
0.147 -0.117 10.522 10
0.166 -0.117 10.483 10
0.176 -0.147 10.444 10
0.245 -0.127 10.512 10
0.313 -0.088 10.61 10
0.294 -0.039 10.679 10
0.264 -0.029 10.65 10
0.225 0.009 10.679 10
0.186 0.039 10.65 10
0.186 0.009 10.728 10
0.235 -0.009 10.826 10
0.225 -0.068 10.816 10
0.186 -0.107 10.777 10
0.137 -0.166 10.718 10
0.078 -0.166 10.689 10
0.078 -0.196 10.689 10
0.039 -0.205 10.65 10
0.039 -0.235 10.65 10
0.068 -0.205 10.6 10
0.107 -0.137 10.591 10
0.205 -0.117 10.699 1
0.254 -0.117 10.748 10
0.254 -0.088 10.748 1
0.264 -0.049 10.777 9
0.264 -0.058 10.777 11
0.264 -0.058 10.767 1
0.235 -0.058 10.767 8
0.235 -0.029 10.767 1
0.215 0.009 10.777 10
0.245 0.0 10.777 10
0.294 0.009 10.757 10
0.274 0.009 10.767 10
0.235 -0.147 10.748 10
0.235 -0.039 10.748 1
0.166 -0.098 10.767 9
0.009 -0.098 10.728 10
0.127 -0.166 10.728 1
0.088 -0.245 10.718 9
0.078 -0.235 10.62 11
0.107 -0.235 10.63 9
0.107 -0.245 10.63 1
0.107 -0.245 10.679 9
0.137 -0.225 10.679 1
0.147 -0.196 10.679 10
0.186 -0.137 10.679 10
0.186 -0.137 10.738 9
0.215 -0.107 10.738 2
0.254 -0.098 10.767 9
0.274 -0.068 10.767 11
0.225 -0.068 10.689 9
0.225 -0.029 10.689 1
0.215 -0.009 10.718 9
0.186 0.039 10.718 11
0.215 0.039 10.777 9
0.215 0.058 10.777 1
0.225 0.039 10.787 10
0.225 0.039 10.767 9
0.225 -0.019 10.767 2
0.225 -0.098 10.679 9
0.205 -0.254 10.64 10
0.205 -0.176 10.64 1
0.156 -0.186 10.63 9
0.117 -0.245 10.65 10
0.117 -0.245 10.728 10
0.098 -0.254 10.728 1
0.127 -0.264 10.797 10
0.127 -0.323 10.797 9
0.107 -0.304 10.767 11
0.098 -0.304 10.787 9
0.098 -0.254 10.787 1
0.078 -0.186 10.797 10
0.176 -0.127 10.757 10
0.215 -0.127 10.669 10
0.215 -0.058 10.669 1
0.215 -0.058 10.61 9
0.294 -0.039 10.571 10
0.294 -0.029 10.493 11
0.254 -0.029 10.502 9
0.254 0.009 10.502 1
0.225 -0.019 10.502 10
0.225 -0.019 10.434 9
0.215 -0.068 10.434 3
0.186 -0.117 10.395 8
0.176 -0.117 10.385 9
0.176 -0.127 10.385 2
0.176 -0.088 10.473 9
0.186 -0.098 10.62 10
0.186 -0.098 10.777 9
0.205 -0.147 10.689 2
0.225 -0.196 10.738 9
0.215 -0.205 10.757 11
0.225 -0.156 10.718 9
0.235 -0.127 10.748 11
0.245 -0.117 10.708 12
0.254 -0.117 10.659 8
0.254 -0.127 10.659 1
0.254 -0.068 10.581 9
0.245 -0.068 10.581 10
0.245 -0.029 10.581 1
0.264 0.009 10.561 9
0.274 -0.019 10.64 11
0.284 -0.049 10.61 9
0.304 -0.166 10.669 11
0.254 -0.205 10.748 10
0.205 -0.225 10.816 10
0.166 -0.274 10.875 13
0.127 -0.284 10.885 7
0.107 -0.264 10.895 10
0.088 -0.215 10.855 10
0.137 -0.196 10.826 10
0.196 -0.127 10.806 11
0.205 -0.137 10.738 9
0.225 -0.137 10.64 10
0.225 -0.127 10.64 1
0.245 -0.068 10.6 10
0.254 -0.068 10.532 9
0.254 -0.049 10.532 1
0.304 -0.029 10.571 12
0.294 -0.068 10.63 8
0.254 -0.068 10.689 10
0.186 -0.088 10.718 11
0.147 -0.117 10.826 9
0.137 -0.137 10.855 11
0.127 -0.166 10.826 10
0.127 -0.176 10.797 10
0.117 -0.215 10.787 10
0.137 -0.147 10.689 11
0.127 -0.147 10.669 9
0.127 -0.147 10.679 10
0.127 -0.117 10.679 1
0.127 -0.098 10.65 9
0.117 -0.078 10.62 11
0.274 -0.078 10.61 9
0.166 -0.088 10.61 1
0.205 -0.088 10.659 10
0.196 -0.098 10.738 9
0.215 -0.098 10.777 11
0.176 -0.137 10.777 11
0.156 -0.117 10.757 9
0.127 -0.117 10.767 10
0.098 -0.127 10.787 11
0.117 -0.156 10.699 10
0.166 -0.166 10.63 9
0.235 -0.186 10.63 11
0.196 -0.186 10.561 10
0.166 -0.186 10.532 9
0.166 -0.147 10.532 1
0.166 -0.098 10.551 10
0.176 -0.058 10.522 11
0.205 -0.029 10.581 9
0.205 -0.029 10.62 10
0.254 -0.029 10.62 1
0.254 -0.078 10.699 9
0.304 -0.078 10.767 10
0.294 -0.127 10.757 10
0.254 -0.166 10.757 11
0.215 -0.166 10.738 10
0.196 -0.205 10.748 10
0.196 -0.205 10.708 9
0.225 -0.196 10.708 1
0.235 -0.205 10.738 10
0.225 -0.235 10.748 10
0.215 -0.235 10.689 10
0.215 -0.225 10.689 1
0.205 -0.196 10.659 9
0.225 -0.156 10.708 11
0.264 -0.156 10.728 9
0.264 -0.127 10.728 1
0.274 -0.098 10.757 9
0.294 -0.098 10.767 11
0.294 -0.098 10.787 9
0.274 -0.127 10.787 1
0.235 -0.107 10.767 10
0.205 -0.117 10.787 10
0.186 -0.166 10.787 11
0.215 -0.156 10.826 9
0.215 -0.107 10.767 10
0.274 -0.117 10.767 11
0.284 -0.196 10.738 9
0.294 -0.205 10.708 11
0.294 -0.205 10.65 9
0.235 -0.166 10.65 1
0.215 -0.156 10.62 10
0.196 -0.117 10.63 10
0.196 -0.117 10.689 9
0.215 -0.127 10.689 2
0.166 -0.137 10.757 9
0.186 -0.078 10.787 10
0.176 -0.039 10.777 15
0.176 -0.049 10.787 10
0.176 -0.058 10.777 10
0.117 -0.068 10.777 10
0.137 -0.058 10.718 10
0.176 -0.029 10.718 10
0.205 -0.039 10.689 10
0.245 -0.088 10.659 10
0.196 -0.107 10.64 10
0.166 -0.127 10.542 10
0.156 -0.117 10.493 10
0.166 -0.137 10.571 10
0.196 -0.147 10.699 10
0.215 -0.127 10.689 10
0.176 -0.078 10.65 10
0.166 -0.049 10.699 10
0.156 -0.019 10.728 10
0.137 0.0 10.728 10
0.127 -0.009 10.728 10
0.127 0.0 10.748 10
0.117 0.039 10.679 8
0.127 -0.039 10.679 12
0.107 -0.049 10.63 10
0.147 -0.088 10.6 10
0.196 -0.156 10.561 10
0.196 -0.088 10.453 20
0.166 -0.068 10.473 10
0.205 -0.068 10.561 10
0.196 -0.068 10.6 10
0.215 -0.078 10.591 10
0.205 -0.019 10.64 10
0.205 -0.019 10.679 10
0.176 -0.009 10.738 10
0.127 0.0 10.708 10
0.137 -0.029 10.718 10
0.166 -0.019 10.699 10
0.176 -0.019 10.728 10
0.166 -0.039 10.699 10
0.176 -0.058 10.689 11
0.176 -0.058 10.63 8
0.176 -0.088 10.63 1
0.166 -0.117 10.571 9
0.205 -0.147 10.62 11
0.274 -0.304 10.708 10
0.274 -0.186 10.708 1
0.254 -0.156 10.787 9
0.264 -0.147 10.806 10
0.264 -0.147 10.748 10
0.235 -0.117 10.748 2
0.186 -0.127 10.787 9
0.156 -0.127 10.757 9
0.156 -0.049 10.757 1
0.137 0.0 10.787 9
0.147 0.0 10.787 10
0.147 0.019 10.787 1
0.205 0.029 10.738 10
0.186 0.009 10.708 10
0.186 -0.019 10.669 10
0.166 -0.078 10.659 10
0.196 -0.127 10.63 10
0.235 -0.107 10.62 12
0.264 -0.147 10.571 8
0.264 -0.147 10.532 10
0.294 -0.166 10.532 1
0.313 -0.147 10.65 9
0.264 -0.304 10.728 10
0.264 -0.176 10.728 1
0.196 -0.156 10.816 10
0.196 -0.156 10.973 9
0.156 -0.117 10.836 1
0.156 -0.117 10.816 9
0.166 -0.117 10.816 2
0.176 -0.078 10.777 9
0.176 -0.078 10.797 10
0.176 -0.049 10.797 1
0.196 -0.019 10.826 11
0.186 -0.029 10.826 9
0.166 -0.029 10.806 9
0.156 -0.058 10.728 11
0.0 -0.058 10.738 9
0.098 -0.137 10.738 2
0.127 -0.156 10.738 9
0.137 -0.176 10.708 10
0.215 -0.156 10.669 10
0.313 -0.127 10.659 11
0.323 -0.127 10.708 9
0.323 -0.088 10.708 1
0.353 -0.058 10.767 9
0.343 -0.058 10.846 11
0.294 -0.068 10.885 9
0.186 -0.049 10.865 11
0.186 -0.049 10.708 9
0.127 -0.058 10.748 1
0.127 -0.058 10.65 9
0.049 -0.058 10.65 1
0.029 -0.049 10.679 10
0.029 -0.049 10.65 9
0.068 -0.039 10.65 2
0.098 -0.088 10.65 11
0.147 -0.107 10.65 8
0.245 -0.107 10.669 10
0.245 -0.117 10.669 1
0.313 -0.098 10.659 10
0.372 -0.068 10.65 9
0.362 -0.078 10.65 11
0.333 -0.058 10.679 10
0.313 -0.098 10.708 10
0.274 -0.088 10.777 10
0.254 -0.088 10.767 10
0.225 -0.078 10.767 12
0.215 -0.068 10.689 8
